        5.04651       58.17911110        2.60269162
        5.14621       57.04453131        2.48367176
        5.24590       55.34845865        2.41124335
        5.34559       54.16179325        2.18758019
        5.44529       52.29673161        2.33840030
        5.54498       50.65605803        1.93579815
        5.64467       53.23479524        1.96729271
        5.74437       51.31876736        1.74348220
        5.84406       49.72881399        1.73675492
        5.94375       49.98088905        1.73883281
        6.04345       49.45899433        1.68072661
        6.14314       51.06081022        1.56370334
        6.24283       46.71510011        1.54481851
        6.34253       50.16883600        1.52711988
        6.44222       48.30925951        1.57781608
        6.54191       50.21987438        1.52411230
        6.64161       51.27356381        1.45897275
        6.74130       50.10225461        1.44797754
        6.84099       51.06288672        1.45125843
        6.94069       49.12189190        1.44474366
        7.04038       48.29758842        1.32232760
        7.14007       47.78104897        1.31248674
        7.23977       47.80974956        1.28992813
        7.33946       47.73457491        1.30863987
        7.43915       49.36927147        1.31356829
        7.53885       47.35696281        1.26269260
        7.63854       48.23203390        1.21798988
        7.73823       48.81192268        1.27231731
        7.83793       47.51067896        1.21465845
        7.93762       47.62801937        1.26863261
        8.03732       47.24464805        1.13313951
        8.13701       47.66525840        1.13305151
        8.23670       47.67658751        1.14917648
        8.33640       49.13885862        1.16704684
        8.43609       48.34722053        1.21019747
        8.53578       49.68916763        1.14281911
        8.63548       48.80385162        1.11953992
        8.73517       47.43429624        1.08263117
        8.83486       48.32454443        1.09543879
        8.93456       45.71360516        1.05986549
        9.03425       48.34438968        1.05811760
        9.13394       45.85865417        1.03240578
        9.23364       47.19889594        1.06272648
        9.33333       45.55396514        1.06523887
        9.43302       47.81115381        1.09180379
        9.53272       45.81246610        1.03255878
        9.63241       46.92503604        1.07460147
        9.73210       47.68237382        1.08109595
        9.83180       48.80848686        1.13976401
        9.93149       49.43865895        1.13891252
       10.03118       47.31138621        1.07193555
       10.13088       48.35108651        1.05772205
       10.23057       48.23503648        1.10631584
       10.33026       46.21187615        1.11924517
       10.42996       48.31485491        1.12883204
       10.52965       45.46788585        1.06041630
       10.62934       47.43523197        1.08579234
       10.72904       48.69349959        1.11641814
       10.82873       49.79671673        1.12334871
       10.92842       47.63089975        1.11697841
       11.02812       49.30291454        1.08273807
       11.12781       49.97810310        1.12925639
       11.22750       51.46980034        1.15746292
       11.32720       51.28621590        1.18646654
       11.42689       51.39527797        1.14652385
       11.52658       54.54467359        1.16718275
       11.62628       55.03613023        1.18517102
       11.72597       54.88474931        1.20867161
       11.82567       56.15072007        1.25658385
       11.92536       60.21000005        1.21787310
       12.02505       65.85327593        1.27985251
       12.12475       73.42306049        1.35054092
       12.22444       77.29489543        1.46953673
       12.32413       87.09224174        1.58414279
       12.42383       99.58981183        1.60844488
       12.52352      115.90968629        1.72523883
       12.62321      132.10301253        1.89471920
       12.72291      157.17000255        2.01216557
       12.82260      181.96841409        2.35461916
       12.92229      200.90169492        2.24753926
       13.02199      228.67480834        2.37987374
       13.12168      259.55682067        2.58064690
       13.22137      289.40487832        2.81427126
       13.32107      311.58208878        3.01428786
       13.42076      341.52495098        3.03878688
       13.52045      362.32234005        3.16813762
       13.62015      360.79794894        3.06328444
       13.71984      346.26324439        3.12698579
       13.81953      315.64443682        3.03508693
       13.91923      282.25427118        2.69561832
       14.01892      223.85627295        2.33600162
       14.11861      170.15196065        2.12381146
       14.21831      136.60915198        1.90450243
       14.31800      111.15092034        1.80816485
       14.41769       85.25606236        1.52445681
       14.51739       71.93524484        1.36593751
       14.61708       60.34676087        1.25394261
       14.71677       53.58600277        1.20072351
       14.81647       51.36910082        1.23150831
       14.91616       51.61860643        1.13529245
       15.01585       50.48378603        1.14294553
       15.11555       48.46917451        1.13280910
       15.21524       48.32355983        1.16577267
       15.31493       47.90506642        1.18868680
       15.41463       48.05065212        1.15267211
       15.51432       49.28644284        1.13127811
       15.61402       48.81049638        1.15429119
       15.71371       49.17663512        1.15066884
       15.81340       45.28070754        1.14848047
       15.91310       45.69751160        1.12106909
       16.01279       48.55035233        1.10652240
       16.11248       47.86221679        1.12812840
       16.21218       46.34952073        1.14086206
       16.31187       47.22512237        1.15443920
       16.41156       45.95679585        1.11757570
       16.51126       48.03011914        1.16190989
       16.61095       49.15949259        1.13348699
       16.71064       52.31001795        1.20634493
       16.81034       52.15139185        1.20815287
       16.91003       50.93925202        1.15954536
       17.00972       55.92704888        1.16658741
       17.10942       60.06706449        1.27801549
       17.20911       58.30652211        1.27017258
       17.30880       63.70077477        1.33938521
       17.40850       69.69147755        1.40088552
       17.50819       70.03531595        1.36360909
       17.60788       74.15380264        1.44689252
       17.70758       76.55302265        1.47629349
       17.80727       74.62254786        1.47545607
       17.90696       71.92218080        1.35420572
       18.00666       65.51775254        1.31491456
       18.10635       64.22249976        1.26623795
       18.20604       60.97831282        1.35341589
       18.30574       56.74759109        1.24416830
       18.40543       55.59316639        1.20093562
       18.50512       56.13855863        1.24492539
       18.60482       54.64981608        1.20898000
       18.70451       53.14325041        1.25980217
       18.80420       50.82918646        1.15734727
       18.90390       50.60227008        1.14242469
       19.00359       52.29529824        1.13108780
       19.10328       47.15489282        1.13613707
       19.20298       47.99119003        1.18186695
       19.30267       46.90885898        1.12205669
       19.40237       45.82980948        1.09648231
       19.50206       46.41851088        1.13126979
       19.60175       45.71768065        1.11008099
       19.70145       44.67353840        1.15061142
       19.80114       44.42584508        1.08824687
       19.90083       43.61453791        1.04179531
       20.00053       46.68044349        1.09703254
       20.10022       46.62411447        1.10451111
       20.19991       47.12933106        1.18724696
       20.29961       48.11690240        1.13668730
       20.39930       50.73846606        1.20261400
       20.49899       48.64772718        1.15703270
       20.59869       51.43368682        1.21157291
       20.69838       53.57223372        1.28219807
       20.79807       53.17285267        1.21837608
       20.89777       55.19577405        1.21333925
       20.99746       58.09149441        1.25726457
       21.09715       56.81031076        1.30955661
       21.19685       59.02988421        1.32803965
       21.29654       57.10158539        1.27407340
       21.39623       56.70913716        1.26973665
       21.49593       56.38092748        1.24794699
       21.59562       53.07150647        1.23977871
       21.69531       51.15067423        1.26589696
       21.79501       48.67723458        1.12959912
       21.89470       48.33921323        1.10032776
       21.99439       47.58258346        1.13793690
       22.09409       45.96273970        1.12110733
       22.19378       48.11680920        1.21827777
       22.29347       43.63736547        1.08036120
       22.39317       46.61232083        1.14562641
       22.49286       44.54682604        1.11897965
       22.59255       46.36397312        1.15507090
       22.69225       47.66713809        1.23425957
       22.79194       50.19537376        1.13759801
       22.89163       53.48515686        1.15145888
       22.99133       58.62413899        1.23916176
       23.09102       60.26694041        1.30490453
       23.19072       64.13091692        1.34944464
       23.29041       64.12058509        1.33253501
       23.39010       67.01751518        1.37671593
       23.48980       65.74128869        1.36843347
       23.58949       66.62080942        1.39607314
       23.68918       60.44862974        1.39809888
       23.78888       56.27434295        1.20201824
       23.88857       50.90132239        1.15793591
       23.98826       48.06843585        1.15027289
       24.08796       46.74790689        1.11220928
       24.18765       42.09375199        1.13067612
       24.28734       46.33157245        1.12957313
       24.38704       45.20786237        1.13439477
       24.48673       42.58846864        1.09700169
       24.58642       43.36825670        1.14365902
       24.68612       44.78211264        1.16067408
       24.78581       46.07632625        1.08534480
       24.88550       43.97704817        1.05982134
       24.98520       45.08496011        1.11282540
       25.08489       47.02065834        1.15923452
       25.18458       46.41593887        1.17592512
       25.28428       47.41667342        1.14557428
       25.38397       48.33226474        1.15100053
       25.48366       48.55554118        1.16056665
       25.58336       55.50731664        1.29366921
       25.68305       59.76124300        1.31669285
       25.78274       69.69840642        1.34243999
       25.88244       84.80973688        1.51879957
       25.98213      105.33575959        1.70724788
       26.08182      128.96369842        1.93950457
       26.18152      152.08593072        2.15798941
       26.28121      177.47555445        2.20606890
       26.38090      195.30887247        2.33455326
       26.48060      193.63192511        2.38840263
       26.58029      184.84989836        2.43418989
       26.67998      170.45310565        2.20741794
       26.77968      146.48599939        2.02136626
       26.87937      116.07275322        1.77258161
       26.97907       90.85024580        1.55433275
       27.07876       82.29178722        1.59268049
       27.17845       74.46841045        1.44756325
       27.27815       78.93487130        1.45563829
       27.37784       83.47921916        1.55548825
       27.47753       83.40431829        1.53180010
       27.57723       85.88393405        1.62845914
       27.67692       81.70294970        1.55012963
       27.77661       77.94392971        1.44498106
       27.87631       68.72984031        1.33401785
       27.97600       62.79380169        1.30368407
       28.07569       57.43179635        1.31939090
       28.17539       52.63910607        1.20907324
       28.27508       50.58520253        1.18570355
       28.37477       50.22377738        1.20956727
       28.47447       49.56285491        1.19217008
       28.57416       49.93959625        1.29378596
       28.67385       50.29080816        1.15510958
       28.77355       53.24143171        1.16718012
       28.87324       58.63215877        1.25769784
       28.97293       56.55223310        1.23797654
       29.07263       57.45408965        1.36021636
       29.17232       58.31542719        1.25062466
       29.27201       57.01009894        1.25934175
       29.37171       54.22397974        1.26332843
       29.47140       52.36523548        1.22708661
       29.57109       50.94378270        1.28336401
       29.67079       48.35071619        1.13813770
       29.77048       46.96203294        1.12422222
       29.87017       46.57428158        1.09758207
       29.96987       45.19607227        1.13363522
       30.06956       46.46379129        1.18589369
       30.16925       44.47779882        1.09239165
       30.26895       45.47465323        1.10882383
       30.36864       47.06073048        1.14649226
       30.46833       47.36839157        1.16189988
       30.56803       51.85635808        1.28437786
       30.66772       55.84537157        1.24049094
       30.76742       60.92293532        1.26993358
       30.86711       63.21245200        1.31944478
       30.96680       61.35163735        1.30729839
       31.06650       61.60285115        1.37358750
       31.16619       62.18877302        1.29766097
       31.26588       60.10110599        1.26794557
       31.36558       57.05969525        1.25149785
       31.46527       57.67451571        1.30922527
       31.56496       58.75530679        1.34270345
       31.66466       62.54991232        1.29575288
       31.76435       72.52216220        1.39422330
       31.86404       76.62322113        1.41438561
       31.96374       86.49010602        1.53800339
       32.06343       87.86356359        1.60422943
       32.16312       86.45489678        1.49543447
       32.26282       82.20621800        1.49369542
       32.36251       75.32142196        1.48671054
       32.46220       70.54021222        1.46438845
       32.56190       71.03790516        1.49569423
       32.66159       67.09906477        1.38027841
       32.76128       62.76261668        1.30479345
       32.86098       64.01216017        1.33756972
       32.96067       60.27638269        1.31404298
       33.06036       61.79573256        1.35485215
       33.16006       57.61077603        1.23179936
       33.25975       55.46130445        1.24777141
       33.35944       56.88257930        1.27057009
       33.45914       57.74150581        1.32885865
       33.55883       58.08565193        1.33594676
       33.65852       61.64047235        1.28345539
       33.75822       66.53072815        1.33126099
       33.85791       71.04103230        1.38136701
       33.95760       81.86449737        1.52708529
       34.05730       93.06935822        1.61283547
       34.15699      106.55034240        1.69874427
       34.25668      120.11760570        1.79772193
       34.35638      146.06360227        2.03450439
       34.45607      187.47418326        2.42920685
       34.55577      233.07244958        2.58243386
       34.65546      296.57229974        2.79544423
       34.75515      367.84066785        3.17437586
       34.85485      421.98049564        3.37517969
       34.95454      451.93087986        3.60414953
       35.05423      432.13523044        3.64366337
       35.15393      387.97782735        3.24105817
       35.25362      308.67865074        2.93338061
       35.35331      243.28142314        2.67083690
       35.45301      182.89520638        2.41496702
       35.55270      138.47407346        2.04501053
       35.65239      111.47602512        1.77163630
       35.75209       87.87735546        1.56069214
       35.85178       76.61518143        1.45490987
       35.95147       73.54606558        1.45896207
       36.05117       68.69620551        1.38083425
       36.15086       65.91302227        1.30045375
       36.25055       62.42467217        1.32209141
       36.35025       59.84359163        1.31971884
       36.44994       57.97436654        1.32483364
       36.54963       59.66424979        1.29026947
       36.64933       57.76793236        1.25057364
       36.74902       57.39723060        1.25956551
       36.84871       53.48666820        1.20696314
       36.94841       51.67050365        1.28282487
       37.04810       51.73067345        1.13178917
       37.14779       51.61593718        1.15371118
       37.24749       48.63987637        1.15099085
       37.34718       46.42527035        1.15307788
       37.44687       48.79605110        1.26997245
       37.54657       48.94449877        1.16116990
       37.64626       47.96146313        1.14500291
       37.74595       48.61270314        1.13475259
       37.84565       47.09421755        1.18170652
       37.94534       47.56279221        1.20985364
       38.04503       47.67132287        1.09474810
       38.14473       48.43170498        1.11428780
       38.24442       48.84057794        1.13944875
       38.34412       48.25412088        1.18407957
       38.44381       49.16085658        1.29235025
       38.54350       50.51758492        1.16786014
       38.64320       50.74018223        1.16689185
       38.74289       51.53169491        1.19137132
       38.84258       53.89610009        1.22144409
       38.94228       56.86485809        1.31608170
       39.04197       58.05944746        1.19916445
       39.14166       65.43268268        1.32460090
       39.24136       68.71731711        1.35391338
       39.34105       69.20653013        1.40611113
       39.44074       72.15560420        1.56622968
       39.54044       71.68060102        1.39577791
       39.64013       70.00400602        1.37507203
       39.73982       66.26273589        1.34308097
       39.83952       63.31844351        1.30391229
       39.93921       61.94556094        1.36743966
       40.03890       58.30360616        1.21420235
       40.13860       54.34442008        1.17057648
       40.23829       56.54808414        1.23641430
       40.33798       55.12403652        1.25873778
       40.43768       56.92794147        1.33844276
       40.53737       57.41970267        1.24762269
       40.63706       57.50324511        1.27474789
       40.73676       61.72202531        1.31877981
       40.83645       57.62205670        1.28467762
       40.93614       61.03416445        1.34447607
       41.03584       67.07422150        1.32663579
       41.13553       76.31226714        1.41698645
       41.23522       90.52986082        1.58132883
       41.33492      119.95989125        1.90689814
       41.43461      134.00755971        2.08024360
       41.53430      163.72884274        2.15458219
       41.63400      191.79402370        2.38401078
       41.73369      200.10030106        2.38175183
       41.83338      212.39067222        2.52005906
       41.93308      219.26186052        2.53821807
       42.03277      219.23734957        2.31959337
       42.13247      242.23003657        2.56355082
       42.23216      291.56142586        2.81956659
       42.33185      349.95275927        3.31749600
       42.43155      422.70696018        3.59507710
       42.53124      485.63404084        3.73240476
       42.63093      528.49589445        3.90147085
       42.73063      556.05258091        4.02147664
       42.83032      529.94901521        3.99341797
       42.93001      498.35197882        3.72691133
       43.02971      428.90115408        3.26480842
       43.12940      339.16661881        2.95975450
       43.22909      257.65076759        2.70926476
       43.32879      194.94386994        2.48095927
       43.42848      147.31934848        2.10808956
       43.52817      110.62959701        1.74690009
       43.62787       86.04521496        1.53483575
       43.72756       73.88892056        1.45564763
       43.82725       65.17914715        1.42729344
       43.92695       62.18004017        1.26410045
       44.02664       60.23486341        1.23817383
       44.12633       56.40062202        1.24262504
       44.22603       53.75331615        1.26256890
       44.32572       55.67439875        1.35436129
       44.42541       52.68630241        1.25776827
       44.52511       55.97013099        1.26164969
       44.62480       54.93128000        1.26750827
       44.72449       59.55228143        1.27914209
       44.82419       60.20643672        1.44320571
       44.92388       66.59238421        1.26610365
       45.02357       72.38683202        1.33099689
       45.12327       86.12216327        1.49582837
       45.22296      104.39768412        1.69089617
       45.32265      128.43752596        2.07564555
       45.42235      150.51588880        2.04658837
       45.52204      176.90749240        2.19728468
       45.62174      205.34321174        2.41138098
       45.72143      227.29841369        2.53775521
       45.82112      234.02865215        2.81893253
       45.92082      241.87059505        2.43345385
       46.02051      239.61530440        2.47370480
       46.12020      233.43867521        2.44941491
       46.21990      217.46862582        2.48357907
       46.31959      198.96752134        2.56451492
       46.41928      174.95022738        2.22012895
       46.51898      145.72140221        2.03635079
       46.61867      120.76053988        1.84359912
       46.71836       97.34122183        1.69689746
       46.81806       79.55190087        1.58999184
       46.91775       66.80426826        1.26964606
       47.01744       61.48713078        1.24694967
       47.11714       62.40018315        1.28490332
       47.21683       68.93525457        1.39053404
       47.31652       78.57434368        1.62000378
       47.41622       84.76254242        1.58574836
       47.51591      101.46405547        1.73875695
       47.61560      115.07585734        1.83654346
       47.71530      137.49792302        2.03010428
       47.81499      145.96529338        2.14430821
       47.91468      165.56544178        1.99863458
       48.01438      174.25763834        2.05155773
       48.11407      177.79758523        2.14989718
       48.21376      182.34879616        2.27356468
       48.31346      169.14038656        2.26685605
       48.41315      160.62680119        2.05890213
       48.51284      143.05108195        2.00700292
       48.61254      121.52089392        1.84151090
       48.71223      106.55200078        1.75527735
       48.81192       84.69338401        1.56038150
       48.91162       74.11257024        1.30826772
       49.01131       63.58029414        1.25391789
       49.11100       56.65116910        1.22603780
       49.21070       53.37357598        1.24928804
       49.31039       51.68726401        1.26520710
       49.41009       51.37196269        1.19156540
       49.50978       51.20089993        1.21418838
       49.60947       50.18152050        1.21079653
       49.70917       48.99218612        1.24067130
       49.80886       47.53885494        1.18937512
       49.90855       49.76991292        1.10866363
       50.00825       47.17164001        1.10203306
       50.10794       48.84042959        1.14694458
       50.20763       53.00093751        1.24847014
       50.30733       51.09903552        1.28399321
       50.40702       53.08406108        1.22733586
       50.50671       53.44859352        1.23517525
       50.60641       56.66016112        1.27368826
       50.70610       56.52884699        1.30905258
       50.80579       54.45066451        1.26771796
       50.90549       56.45666270        1.16390040
       51.00518       55.09417550        1.15990840
       51.10487       56.72826250        1.21670857
       51.20457       54.31872935        1.26738065
       51.30426       54.88796635        1.26740238
       51.40395       59.04710022        1.26040085
       51.50365       56.76732555        1.24984402
       51.60334       61.70256471        1.32900597
       51.70303       61.38764223        1.40770801
       51.80273       60.63318475        1.28325526
       51.90242       62.97837258        1.22202555
       52.00211       63.81637039        1.23598255
       52.10181       62.85477642        1.26541572
       52.20150       62.75089241        1.39241077
       52.30119       63.53440632        1.34969294
       52.40089       63.58132981        1.32905131
       52.50058       59.24134057        1.30692639
       52.60027       59.50904622        1.32777945
       52.69997       62.10699751        1.48668661
       52.79966       61.46962893        1.24344575
       52.89935       65.32208648        1.23696924
       52.99905       70.85419495        1.30952834
       53.09874       83.48646224        1.46780323
       53.19844      101.40221673        1.85332068
       53.29813      115.62560308        1.75929455
       53.39782      122.02074816        1.86966245
       53.49752      135.41980434        1.97915167
       53.59721      149.44659722        2.07824554
       53.69690      151.24556239        2.29397025
       53.79660      153.57728625        1.93643131
       53.89629      152.75979290        1.91038940
       53.99598      147.45106524        1.92253905
       54.09568      135.51906515        1.92413562
       54.19537      121.17706958        1.98361873
       54.29506      111.49852030        1.74769017
       54.39476      105.41001433        1.71232240
       54.49445       95.57272454        1.63121402
       54.59414       88.62031076        1.59438633
       54.69384       86.33110122        1.67869710
       54.79353       87.34357274        1.44803913
       54.89322       82.80828753        1.40467100
       54.99292       79.77290317        1.41894016
       55.09261       74.46639753        1.42546680
       55.19230       70.82897577        1.49278971
       55.29200       66.52514042        1.34636508
       55.39169       63.75163680        1.35984886
       55.49138       58.74128441        1.30027182
       55.59108       57.59812538        1.32881049
       55.69077       57.11964423        1.35802238
       55.79046       54.67559253        1.16151453
       55.89016       56.48106764        1.17779064
       55.98985       56.92789860        1.19003861
       56.08954       59.89476875        1.26100778
       56.18924       64.75232494        1.41521530
       56.28893       70.70822292        1.35371772
       56.38862       81.17728087        1.50077421
       56.48832       93.82214229        1.64171823
       56.58801      102.31461244        1.76429382
       56.68770      110.40997473        1.89196852
       56.78740      115.15102234        1.65381039
       56.88709      114.52683546        1.66575221
       56.98679      111.12528250        1.64219812
       57.08648       97.05074767        1.62622427
       57.18617       86.06711354        1.58527129
       57.28587       75.57295406        1.38756329
       57.38556       67.64881932        1.39722980
       57.48525       61.67234580        1.35951167
       57.58495       57.88683865        1.34718308
       57.68464       55.86359011        1.33490310
       57.78433       53.92035877        1.14721341
       57.88403       50.06210077        1.11814282
       57.98372       50.47879870        1.14068234
       58.08341       53.48416912        1.26966077
       58.18311       52.98370594        1.29266620
       58.28280       54.14624367        1.23088325
       58.38249       52.37020723        1.26480883
       58.48219       53.02467848        1.30019913
       58.58188       52.35962451        1.30611911
       58.68157       50.56620757        1.25769600
       58.78127       54.07621250        1.13779154
       58.88096       53.33013526        1.11321447
       58.98065       55.01828065        1.17381930
       59.08035       57.97744299        1.28590000
       59.18004       58.67111953        1.31223322
       59.27973       61.02146661        1.26272537
       59.37943       61.21607002        1.30642220
       59.47912       66.00244465        1.41235041
       59.57881       72.67075111        1.55282378
       59.67851       78.90132297        1.50876782
       59.77820       82.53998994        1.41870103
       59.87789       95.32369498        1.51975128
       59.97759       98.10839416        1.61285903
       60.07728      101.48080766        1.77646536
       60.17697      107.88966002        1.74527228
       60.27667      108.08365713        1.69833841
       60.37636      107.46053631        1.72624661
       60.47605      108.17636374        1.80694274
       60.57575       98.79444610        1.89193747
       60.67544       94.45314012        1.58914808
       60.77514       88.26308967        1.46021225
       60.87483       78.24074608        1.34776112
       60.97452       71.42717174        1.35637080
       61.07422       67.62576677        1.48245842
       61.17391       67.11859222        1.27931802
       61.27360       64.11263996        1.29460560
       61.37330       68.53269032        1.38834440
       61.47299       65.52358882        1.41703351
       61.57268       67.12490172        1.63108231
       61.67238       69.71212046        1.35486832
       61.77207       72.28656563        1.34380789
       61.87176       70.07026874        1.30820423
       61.97146       69.96119060        1.35713291
       62.07115       70.13830740        1.53899833
       62.17084       66.73470841        1.31507340
       62.27054       66.35678319        1.36730180
       62.37023       68.63599224        1.44609885
       62.46992       64.42837676        1.44887842
       62.56962       68.28122085        1.67548419
       62.66931       67.98838189        1.34684456
       62.76900       74.46888774        1.37417530
       62.86870       83.52498001        1.42397606
       62.96839       90.81970922        1.53253352
       63.06808       97.13477411        1.76407200
       63.16778      105.54029593        1.63265891
       63.26747      110.34263907        1.72771026
       63.36716      114.11260497        1.82347537
       63.46686      124.25021685        1.96040493
       63.56655      127.51113036        2.10996149
       63.66624      138.57316536        1.87012028
       63.76594      155.81917787        1.92725094
       63.86563      163.66347718        1.96936669
       63.96532      173.20954952        2.12051959
       64.06502      180.18190865        2.31748060
       64.16471      175.85392342        2.11743884
       64.26440      162.40429242        2.11754282
       64.36410      147.23127180        2.05616257
       64.46379      134.45707491        2.07748619
       64.56349      118.35543843        1.98300580
       64.66318      100.79805305        1.60103386
       64.76287       85.96908534        1.45982359
       64.86257       75.20397747        1.36292932
       64.96226       62.53345613        1.30131856
       65.06195       59.38315944        1.37112276
       65.16165       54.29156964        1.18245562
       65.26134       54.26537917        1.20985008
       65.36103       52.30478137        1.23935235
       65.46073       53.41136983        1.29359263
       65.56042       52.67724571        1.34172639
       65.66011       55.87940198        1.20509892
       65.75981       57.90374623        1.21454683
       65.85950       60.02624729        1.22880106
       65.95919       63.69157450        1.32514574
       66.05889       64.54804736        1.37986985
       66.15858       71.86664939        1.38484728
       66.25827       81.10876640        1.52188086
       66.35797       87.06784131        1.64276271
       66.45766       96.28540927        1.83588311
       66.55735      109.99450282        1.96231837
       66.65705      126.30169215        1.86591983
       66.75674      140.96887547        1.92152632
       66.85643      155.49637300        1.99579829
       66.95613      161.74197380        2.11657239
       67.05582      170.69700285        2.19123419
       67.15551      168.55099101        2.07190614
       67.25521      163.48866459        2.14161484
       67.35490      152.60495795        2.17776586
       67.45459      135.59832799        2.16418910
       67.55429      118.28257821        1.93592137
       67.65398      104.05561459        1.62719413
       67.75367       86.92603900        1.47448456
       67.85337       77.09272179        1.40534594
       67.95306       75.58757961        1.48799193
       68.05275       78.27147347        1.43389754
       68.15245       81.71188585        1.45256747
       68.25214       88.94632007        1.60881170
       68.35184       92.92439522        1.71382553
       68.45153      103.46263153        1.99134094
       68.55122      112.55143372        1.78963226
       68.65092      119.67785836        1.72031854
       68.75061      124.87686120        1.77559134
       68.85030      128.03126052        1.83262839
       68.95000      129.38754132        2.08885422
       69.04969      125.40644644        1.73656555
       69.14938      114.00472885        1.70209001
       69.24908      101.03399178        1.71065959
       69.34877       92.17041917        1.68959754
       69.44846       82.87713058        1.85797652
       69.54816       71.54068150        1.34550730
       69.64785       65.28323432        1.26706313
       69.74754       61.10638130        1.23807883
       69.84724       55.40043529        1.20939466
       69.94693       51.35448732        1.31392423
       70.04662       51.97160563        1.08700008
       70.14632       48.50972699        1.09190523
       70.24601       49.27686701        1.17837872
       70.34570       48.22343086        1.23350464
       70.44540       48.96604359        1.46454597
       70.54509       48.20900635        1.13742354
       70.64478       48.45918783        1.13875926
       70.74448       48.65789448        1.15918623
       70.84417       50.98799104        1.23143383
       70.94386       49.73289829        1.33496923
       71.04356       50.82212166        1.11675781
       71.14325       51.95144784        1.17337865
       71.24294       52.59436063        1.24222725
       71.34264       54.22971884        1.33758638
       71.44233       53.16004779        1.47775245
       71.54202       55.43845695        1.22868490
       71.64172       55.35083042        1.19425088
       71.74141       54.23343470        1.16063782
       71.84110       52.50256960        1.18204328
       71.94080       52.37218455        1.28645203
       72.04049       52.93530203        1.09471442
       72.14019       54.04802057        1.15255833
       72.23988       52.07424492        1.18362793
       72.33957       52.97560089        1.33355535
       72.43927       54.41857204        1.48791134
       72.53896       50.91454295        1.15379389
       72.63865       53.01551364        1.15089978
       72.73835       53.61303968        1.13193690
       72.83804       57.39704953        1.23691078
       72.93773       57.12592456        1.31075151
       73.03743       62.83409625        1.19347510
       73.13712       65.51705074        1.28532040
       73.23681       65.35350341        1.34865087
       73.33651       61.47792632        1.43912109
       73.43620       61.20032042        1.55523384
       73.53589       63.35999095        1.27663199
       73.63559       65.67417326        1.27943127
       73.73528       66.59568334        1.28256390
       73.83497       64.55184634        1.33860498
       73.93467       66.43753540        1.43008945
       74.03436       63.85462140        1.24066622
       74.13405       63.05100956        1.28521289
       74.23375       61.68593686        1.32409894
       74.33344       61.24999955        1.45246913
       74.43313       61.65551526        1.51217375
       74.53283       63.32571513        1.30216411
       74.63252       67.21508231        1.33201462
       74.73221       71.84364478        1.37059597
       74.83191       73.05047238        1.46612928
       74.93160       75.19924884        1.50438684
       75.03129       77.29207730        1.35599002
       75.13099       86.13210737        1.48308217
       75.23068       90.36770999        1.58469458
       75.33037       96.03546843        1.79595371
       75.43007      102.57138296        1.88315488
       75.52976      110.80261147        1.70039168
       75.62945      123.22496414        1.79221566
       75.72915      130.84031609        1.83977291
       75.82884      137.59096437        2.03161566
       75.92854      136.26309708        1.89776173
       76.02823      146.97898828        1.84909918
       76.12792      153.04198969        1.97249248
       76.22762      152.98916827        2.08069468
       76.32731      148.63001256        2.31582433
       76.42700      149.29314822        2.19064674
       76.52670      145.69818329        1.99627111
       76.62639      136.63613989        1.90822286
       76.72608      127.76320676        1.81414055
       76.82578      120.82868215        2.03244548
       76.92547      120.27930110        1.62424095
       77.02516      119.57882104        1.67850972
       77.12486      122.25949998        1.78305272
       77.22455      125.72119162        1.92543412
       77.32424      129.53866792        2.40135363
       77.42394      130.77673630        1.92659343
       77.52363      135.07267837        1.89230085
       77.62332      140.49011402        1.92135350
       77.72302      144.55951184        1.95360364
       77.82271      148.44810728        2.32196421
       77.92240      149.43781937        1.78398278
       78.02210      152.31873225        1.94364929
       78.12179      144.13256189        2.01881282
       78.22148      142.28972163        2.12105143
       78.32118      131.63414741        2.36641540
       78.42087      128.24098082        1.83811021
       78.52056      120.63355615        1.84061190
       78.62026      112.84204852        1.76582574
       78.71995      107.02479250        1.72522118
       78.81964       97.23769764        1.83628762
       78.91934       88.93745139        1.36046314
       79.01903       81.16428560        1.42456069
       79.11872       74.91384187        1.42406982
       79.21842       66.82275067        1.43440054
       79.31811       64.78489742        1.59081212
       79.41780       63.18124165        1.27433513
       79.51750       65.37855361        1.31728981
       79.61719       65.09754922        1.31831093
       79.71689       62.98906370        1.34627024
       79.81658       65.62994078        1.45685241
       79.91627       62.15489327        1.20161748
       80.01597       64.63877780        1.25963487
       80.11566       62.79098209        1.29773393
       80.21535       61.60302513        1.37397344
       80.31505       64.24839614        1.66817990
       80.41474       66.57409173        1.30495635
       80.51443       68.58833730        1.31884103
       80.61413       73.87447430        1.41436534
       80.71382       74.29920935        1.46731160
       80.81351       84.16285743        1.75538805
       80.91321       89.09083989        1.33198076
       81.01290      106.74704520        1.57472618
       81.11259      123.70719216        1.83045136
       81.21229      139.67605529        2.10449260
       81.31198      154.29230634        2.46804853
       81.41167      169.39923386        2.02526110
       81.51137      194.92414082        2.23615291
       81.61106      212.23007374        2.43713937
       81.71075      227.36108715        2.61148465
       81.81045      235.55420191        2.81630506
       81.91014      260.08435304        2.27678226
       82.00983      281.48377371        2.53289767
       82.10953      286.04964482        2.85634332
       82.20922      297.69072726        3.24156632
       82.30891      297.44519473        3.39732512
       82.40861      296.60945915        2.75865835
       82.50830      294.84859659        2.74318012
       82.60799      296.90116059        2.96546970
       82.70769      297.71181282        3.23173168
       82.80738      288.27082008        3.03747623
       82.90707      286.24033625        2.45779879
       83.00677      272.61496989        2.55486286
       83.10646      261.15624581        2.94165762
       83.20615      254.80820786        3.23418233
       83.30585      233.18482618        2.92941019
       83.40554      219.29583800        2.36139692
       83.50524      203.16628299        2.21729349
       83.60493      182.50343687        2.31422134
       83.70462      163.37345814        2.46800478
       83.80432      152.87426649        2.08612103
       83.90401      130.41969544        1.61556277
       84.00370      109.24190445        1.54144841
       84.10340       91.79284823        1.68777030
       84.20309       86.88446815        1.99333400
       84.30278       78.55190485        1.54110149
       84.40248       74.10866399        1.32096808
       84.50217       68.61706554        1.24677886
       84.60186       65.01107499        1.37208991
       84.70156       68.69229087        1.84587578
       84.80125       66.23489410        1.26182616
       84.90094       65.11961618        1.12389336
       85.00064       62.26026533        1.13212421
       85.10033       66.06864279        1.38039573
       85.20002       66.31490000        2.37194686
       85.29972       65.60467907        1.24446749
       85.39941       66.50401494        1.27749949
       85.49910       65.77138651        1.23544126
       85.59880       66.36332900        1.39547583
       85.69849       66.26505646        2.50349844
       85.79818       65.43125767        1.17282672
       85.89788       65.77563292        1.14782682
       85.99757       64.52596958        1.16808629
       86.09726       64.83964401        1.34440624
       86.19696       67.13180602        2.62759258
       86.29665       63.42017554        1.20842996
       86.39634       60.68848364        1.20251834
       86.49604       59.52620430        1.17288875
       86.59573       60.37892879        1.25865410
       86.69542       57.52111089        2.56829921
       86.79512       53.34389089        1.02653284
       86.89481       55.17738351        1.02937969
       86.99451       57.34802618        1.08786444
       87.09420       52.92698583        1.16537933
       87.19389       52.37496964        2.74604010
       87.29359       51.94950354        1.10835008
       87.39328       50.17430395        1.10389588
       87.49297       49.81373781        1.06776020
       87.59267       47.79617354        1.06640475
       87.69236       52.42107636        3.34236057
       87.79205       49.78456067        1.01457098
       87.89175       49.66546510        1.00519412
       87.99144       50.06010062        1.05159396
       88.09113       51.74617955        1.13645261
       88.19083       65.27303876        6.75745969
       88.29052       49.76614635        1.12144253
       88.39021       51.44328110        1.14785012
       88.48991       50.14663951        1.08758996
       88.58960       51.13487827        1.06360126
       88.68929       54.07335804        8.47367345
       88.78899       52.31778828        1.03847467
       88.88868       50.86311014        1.00152127
       88.98837       51.34837721        1.04664996
       89.08807       50.83657265        1.06668127
       89.18776       36.15463777        7.31551171
       89.28745       49.97777840        1.07453394
       89.38715       50.93006446        1.09590119
       89.48684       54.47980816        1.10933529
       89.58653       55.88660117        1.10079323
       89.68623       59.75589912        9.22891948
       89.78592       57.99113821        1.08964877
       89.88561       64.05873531        1.12299006
       89.98531       64.92089023        1.15925915
       90.08500       69.17737807        1.24127526
       90.18469       77.00672681       10.92549615
       90.28439       75.57985842        1.32536416
       90.38408       80.74919821        1.39315668
       90.48377       86.30145801        1.41345312
       90.58347       92.83991423        1.44326947
       90.68316       83.89172166       10.68345574
       90.78286       93.01478306        1.38283543
       90.88255       96.42167697        1.37012381
       90.98224       97.68401341        1.42688023
       91.08194       98.88970236        1.48282255
       91.18163       97.27350928       11.73472908
       91.28132       98.74446655        1.52558012
       91.38102       98.26364954        1.56222312
       91.48071       94.70591156        1.49586212
       91.58040       91.45884998        1.42151219
       91.68010       69.75879537        9.38500205
       91.77979       87.56685888        1.33507190
       91.87948       83.55156520        1.28378843
       91.97918       79.62163659        1.30118903
       92.07887       78.49582676        1.34575918
       92.17856       72.99400583        9.86531822
       92.27826       74.18270109        1.35096707
       92.37795       74.68265322        1.38769232
       92.47764       72.26573718        1.29573552
       92.57734       79.70014871        1.32041632
       92.67703       75.83650943        8.35969201
       92.77672       78.01432798        1.25900739
       92.87642       82.19543718        1.26781214
       92.97611       86.17311255        1.35569103
       93.07580       89.08080445        1.57332156
       93.17550       97.80504733        3.10090124
       93.27519       90.68322929        1.46323266
       93.37488       97.78053240        1.47734543
       93.47458      100.36423638        1.51332961
       93.57427       99.40025943        1.74111609
       93.67396      101.73073827        2.38058804
       93.77366       98.05250255        1.44763941
       93.87335       97.35122521        1.37779114
       93.97304       93.37871452        1.40603979
       94.07274       91.54007727        1.80728086
       94.17243       92.12343590        2.06874614
       94.27212       88.58263833        1.51074628
       94.37182       88.58186750        1.47236512
       94.47151       87.84714106        1.40415445
       94.57121       84.61899881        1.81857936
       94.67090       85.92267407        1.85384276
       94.77059       81.49690279        1.40330145
       94.87029       77.00879368        1.24024777
       94.96998       73.04355966        1.22303199
       95.06967       67.42081289        1.35427764
       95.16937       65.00365447        1.82018675
       95.26906       63.07728855        1.38505674
       95.36875       63.21397365        1.25816652
       95.46845       60.81294950        1.18586913
       95.56814       58.34086633        1.33643336
       95.66783       59.07072140        1.51082351
       95.76753       58.29703730        1.24025522
       95.86722       55.09199013        1.02545785
       95.96691       55.71450437        1.06967458
       96.06661       53.02551952        1.33667279
       96.16630       50.78494543        1.39487481
       96.26599       53.86492339        1.29025527
       96.36569       51.23466474        1.12899503
       96.46538       49.30553198        1.06879772
       96.56507       49.33780410        1.31960860
       96.66477       47.72564062        1.26460950
       96.76446       47.11939282        1.12285386
       96.86415       47.56794185        0.97724330
       96.96385       47.19783346        1.00539219
       97.06354       47.09382230        1.35799235
       97.16323       49.77330239        1.33500929
       97.26293       49.20487397        1.24703335
       97.36262       50.12950604        1.16563013
       97.46231       46.76793403        1.03565781
       97.56201       48.18314126        1.33746170
       97.66170       49.42302078        1.21670188
       97.76139       51.49378792        1.12836043
       97.86109       53.90031265        1.04397691
       97.96078       57.21629482        1.09923481
       98.06047       57.21831219        1.52684347
       98.16017       56.17945691        1.34488001
       98.25986       58.02898280        1.30565891
       98.35956       58.03893168        1.23276537
       98.45925       61.70663953        1.18661186
       98.55894       63.82689379        1.57436910
       98.65864       61.94387452        1.33066474
       98.75833       67.72228115        1.30028918
       98.85802       69.81176307        1.23277874
       98.95772       72.72584596        1.24997406
       99.05741       70.52148004        1.70863663
       99.15710       72.21587152        1.48705851
       99.25680       73.86176554        1.45708393
       99.35649       78.55417117        1.43139867
       99.45618       81.03933137        1.35498713
       99.55588       84.97470682        1.85420621
       99.65557       87.16248938        1.54938334
       99.75526       84.92261576        1.43329337
       99.85496       87.27613278        1.38306461
       99.95465       85.60894591        1.34283683
      100.05434       86.90161122        1.92745336
      100.15404       87.58879065        1.62992685
      100.25373       89.60399211        1.62894245
      100.35342       88.10275326        1.60884120
      100.45312       86.38797725        1.45362536
      100.55281       85.52464026        1.89958330
      100.65250       83.78780221        1.53162817
      100.75220       82.25352832        1.40559539
      100.85189       77.62715161        1.30452113
      100.95158       78.72053657        1.27862649
      101.05128       80.54667155        1.84407936
      101.15097       78.70462532        1.50646504
      101.25066       78.12149785        1.48285043
      101.35036       76.68789496        1.48184318
      101.45005       74.50019762        1.37334634
      101.54974       72.89537123        1.69192972
      101.64944       74.72450201        1.39770531
      101.74913       73.63797257        1.30728088
      101.84882       76.20289427        1.29462246
      101.94852       76.00412509        1.36192203
      102.04821       77.50176443        1.65656295
      102.14791       81.14847393        1.52785923
      102.24760       81.17297873        1.51518663
      102.34729       81.35000020        1.51065696
      102.44699       82.26648818        1.54560464
      102.54668       87.37556037        1.67173632
      102.64637       86.69664935        1.48721808
      102.74607       87.85668631        1.42588138
      102.84576       88.48129164        1.40380015
      102.94545       87.04166286        1.58571787
      103.04515       84.82000306        1.65699116
      103.14484       83.79245662        1.53867437
      103.24453       86.56451566        1.53994067
      103.34423       82.76595111        1.49338614
      103.44392       87.12411229        1.65997768
      103.54361       88.15052790        1.62211031
      103.64331       86.53881183        1.46290884
      103.74300       85.84182465        1.38975342
      103.84269       85.42587658        1.36236334
      103.94239       84.70699913        1.63023455
      104.04208       84.30644944        1.57339406
      104.14177       82.78642154        1.51682842
      104.24147       84.74096925        1.53395449
      104.34116       79.49828900        1.49469524
      104.44085       82.63023289        1.73091814
      104.54055       80.74586517        1.54908210
      104.64024       78.89182250        1.43922039
      104.73993       74.54758701        1.33484336
      104.83963       73.16671361        1.27400839
      104.93932       69.88681323        1.50928556
      105.03901       70.73493866        1.43076683
      105.13871       71.74144378        1.38747084
      105.23840       67.47903706        1.34464837
      105.33809       69.53986266        1.37318427
      105.43779       66.69995846        1.56463440
      105.53748       67.37604292        1.41027589
      105.63717       62.63333700        1.24614840
      105.73687       63.35613476        1.19279343
      105.83656       61.64054020        1.14637125
      105.93626       58.98896887        1.42101605
      106.03595       57.98887636        1.27689623
      106.13564       57.87806013        1.23295693
      106.23534       56.12791797        1.22904837
      106.33503       54.89563983        1.22770775
      106.43472       53.77412921        1.43647149
      106.53442       54.03636788        1.25250419
      106.63411       51.19058819        1.10730013
      106.73380       51.73863371        1.06101615
      106.83350       54.11484440        1.06899648
      106.93319       52.75557935        1.36817909
      107.03288       53.37803375        1.21975637
      107.13258       57.42880024        1.22821995
      107.23227       55.14938652        1.22096848
      107.33196       57.05030277        1.23850697
      107.43166       53.24777661        1.43747896
      107.53135       56.86124593        1.28181002
      107.63104       59.68646147        1.19593025
      107.73074       58.99241977        1.14067012
      107.83043       61.45291651        1.14959815
      107.93012       63.94417594        1.55142134
      108.02982       62.36286556        1.34092620
      108.12951       65.18433411        1.30382210
      108.22920       63.13867646        1.26253398
      108.32890       64.91235228        1.26801879
      108.42859       67.24421451        1.63809783
      108.52828       66.74777404        1.38435096
      108.62798       68.56643658        1.27233604
      108.72767       69.88602893        1.23298418
      108.82736       66.83851780        1.23223775
      108.92706       68.34725881        1.57821945
      109.02675       69.06735963        1.38796685
      109.12644       67.76317647        1.34176217
      109.22614       66.62419960        1.33143173
      109.32583       66.43241365        1.44874708
      109.42552       67.72411471        1.54301221
      109.52522       65.62812560        1.37028796
      109.62491       65.92475640        1.30633094
      109.72461       64.84585229        1.23861780
      109.82430       60.96954653        1.12176437
      109.92399       60.23994339        1.44971212
      110.02369       59.42698619        1.26089229
      110.12338       57.86182529        1.23600224
      110.22307       59.10616229        1.23992710
      110.32277       57.61702459        1.25004949
      110.42246       59.52810239        1.54502245
      110.52215       58.58744454        1.29815569
      110.62185       56.88083606        1.20543365
      110.72154       55.50281923        1.11085186
      110.82123       53.95194350        1.13104227
      110.92093       53.69021390        1.31594861
      111.02062       53.78390183        1.21680885
      111.12031       54.15340053        1.23011408
      111.22001       57.59898572        1.24502952
      111.31970       55.15269531        1.32208251
      111.41939       56.27429459        1.38194391
      111.51909       59.56433177        1.29022964
      111.61878       59.56226459        1.21539758
      111.71847       62.58369741        1.15923760
      111.81817       65.25152946        1.28483660
      111.91786       69.03794711        1.39099382
      112.01755       69.45107108        1.36230371
      112.11725       70.39973182        1.38201056
      112.21694       71.11739590        1.38283372
      112.31663       74.24491858        1.55713101
      112.41633       74.99634436        1.53747014
      112.51602       78.42512036        1.44799751
      112.61571       77.91726817        1.37677416
      112.71541       81.90277794        1.33041046
      112.81510       84.69322671        1.51710044
      112.91479       84.31740522        1.54194517
      113.01449       85.96575996        1.52472780
      113.11418       89.17991252        1.54795418
      113.21387       88.52859893        1.53524005
      113.31357       92.63633397        1.74436175
      113.41326       95.22052681        1.68086512
      113.51296       94.64416792        1.57628213
      113.61265       90.11524279        1.48388186
      113.71234       93.11599996        1.44092016
      113.81204       92.90547906        1.64889226
      113.91173       91.59854847        1.58645697
      114.01142       90.15238198        1.55795164
      114.11112       87.70804733        1.53573921
      114.21081       87.22029292        1.54251380
      114.31050       88.00133818        1.75713467
      114.41020       89.27939819        1.63551110
      114.50989       84.87111984        1.49259673
      114.60958       84.87963499        1.44448194
      114.70928       82.88087950        1.37657439
      114.80897       83.06445530        1.56302737
      114.90866       81.88894591        1.46372176
      115.00836       80.38906237        1.44340036
      115.10805       85.55440340        1.49743286
      115.20774       85.89342286        1.52312059
      115.30744       87.07386723        1.76087014
      115.40713       87.00111716        1.59425407
      115.50682       87.16061446        1.50648633
      115.60652       86.14279576        1.44335506
      115.70621       87.55640215        1.39857293
      115.80590       86.28174494        1.61955661
      115.90560       93.98661151        1.53246644
      116.00529       93.87033093        1.54859996
      116.10498       96.83118592        1.58943232
      116.20468      100.01593166        1.65263106
      116.30437       99.10764325        1.96100932
      116.40406       99.95410370        1.71528563
      116.50376      100.15654448        1.62258801
      116.60345      107.21171244        1.61188448
      116.70314      107.84163130        1.56760471
      116.80284      116.88796949        1.93978091
      116.90253      117.54399019        1.74986075
      117.00222      124.28733498        1.78554380
      117.10192      129.07687671        1.86868829
      117.20161      129.76041246        1.89648385
      117.30131      130.88828229        2.27930437
      117.40100      135.62619969        1.95091059
      117.50069      139.53477618        1.87966349
      117.60039      146.42235399        1.84315022
      117.70008      151.61453013        1.81731496
      117.79977      155.58485155        2.25621265
      117.89947      157.73688133        1.97505940
      117.99916      163.01116406        2.03212546
      118.09885      163.34276725        2.07235521
      118.19855      166.66600726        2.19278258
      118.29824      172.72081775        2.44765819
      118.39793      170.13823333        2.20540807
      118.49763      174.08281004        2.10537328
      118.59732      175.03782787        2.03833039
      118.69701      176.34504063        2.13142474
      118.79671      176.82663375        2.30462409
      118.89640      178.91879239        2.16155822
      118.99609      175.94117772        2.14098031
      119.09579      175.44005914        2.16281078
      119.19548      177.54581787        2.37753494
      119.29517      178.55287341        2.47716134
      119.39487      175.98009450        2.26049991
      119.49456      168.55589417        2.08425971
      119.59425      168.53803072        2.02403714
      119.69395      166.38725742        2.12155362
      119.79364      158.67153090        2.09322707
      119.89333      158.14980441        2.02249548
      119.99303      148.58824434        1.91341257
      120.09272      146.94500112        1.94605790
      120.19241      142.90724821        2.15684075
      120.29211      139.86830599        2.11180367
      120.39180      136.95998856        1.99349291
      120.49149      132.89315551        1.82605468
      120.59119      128.78122069        1.74449965
      120.69088      121.29108656        1.82205423
      120.79057      121.06671630        1.78127556
      120.89027      120.07262336        1.74154214
      120.98996      119.06450896        1.72082718
      121.08966      118.92411396        1.73267839
      121.18935      119.46821516        1.99067443
      121.28904      119.02719830        1.93659611
      121.38874      117.58832569        1.82013538
      121.48843      117.58328124        1.71909624
      121.58812      113.87679418        1.61332632
      121.68782      116.78223959        1.81013285
      121.78751      117.12799546        1.72745450
      121.88720      113.96327172        1.68198499
      121.98690      114.35632358        1.69753061
      122.08659      113.29901327        1.72343823
      122.18628      113.48759813        2.00096661
      122.28598      114.10067208        1.88680421
      122.38567      110.50492041        1.77813140
      122.48536      110.53827710        1.68224959
      122.58506      111.04216046        1.59692311
      122.68475      109.07978354        1.79341748
      122.78444      108.52119529        1.68433784
      122.88414      109.81595736        1.68004943
      122.98383      102.12670884        1.65291548
      123.08352      103.21292245        1.64753630
      123.18322      105.27170344        1.94075881
      123.28291      100.69423107        1.72480221
      123.38260      101.16724399        1.66899762
      123.48230      103.72006795        1.62891578
      123.58199       99.08375834        1.48784483
      123.68168       95.17803803        1.66375888
      123.78138       95.17516309        1.50102892
      123.88107       93.86572063        1.45613470
      123.98076       89.05383133        1.44431339
      124.08046       88.59510202        1.42538742
      124.18015       89.30488820        1.61983132
      124.27984       86.22246644        1.42584307
      124.37954       84.27975677        1.33013635
      124.47923       84.06573303        1.29689016
      124.57893       79.66492021        1.34484401
