        5.04651       59.75661272        2.63687919
        5.14621       60.09303566        2.54847167
        5.24590       57.95538910        2.46665819
        5.34559       59.44045262        2.29125345
        5.44529       56.72984037        2.43494436
        5.54498       55.01170985        2.01684456
        5.64467       53.34095994        1.96850774
        5.74437       57.05776427        1.83805465
        5.84406       55.18284933        1.82916893
        5.94375       53.68574856        1.80167259
        6.04345       52.59213867        1.73267309
        6.14314       54.07373238        1.60873177
        6.24283       51.98085644        1.62923942
        6.34253       56.98663972        1.62734924
        6.44222       51.98526959        1.63633194
        6.54191       52.11358797        1.55209205
        6.64161       55.01614291        1.51090309
        6.74130       56.49183430        1.53729638
        6.84099       53.35317458        1.48299986
        6.94069       54.53858983        1.52202540
        7.04038       54.67402063        1.40668939
        7.14007       55.67462088        1.41660992
        7.23977       54.97455831        1.38302991
        7.33946       54.01637166        1.39186219
        7.43915       52.53284968        1.35463415
        7.53885       52.52812002        1.32958030
        7.63854       52.93541576        1.27571846
        7.73823       52.69046118        1.32157450
        7.83793       54.70916180        1.30326436
        7.93762       53.22251296        1.34082378
        8.03732       52.13523054        1.19009426
        8.13701       54.93931023        1.21628504
        8.23670       51.17892309        1.19032932
        8.33640       52.54314237        1.20647881
        8.43609       52.84080433        1.26490459
        8.53578       57.90669600        1.23358916
        8.63548       54.29684633        1.18064055
        8.73517       53.87178136        1.15357878
        8.83486       55.33628851        1.17206129
        8.93456       55.24805119        1.16510788
        9.03425       54.58220227        1.12412775
        9.13394       53.73868603        1.11747455
        9.23364       54.00201114        1.13657588
        9.33333       55.41633427        1.17486365
        9.43302       53.63888014        1.15622621
        9.53272       57.12840335        1.15307053
        9.63241       56.18008114        1.17574104
        9.73210       55.01925841        1.16115105
        9.83180       56.71782716        1.22851896
        9.93149       54.73508471        1.19813232
       10.03118       54.70597463        1.15252444
       10.13088       53.99926254        1.11759020
       10.23057       54.84405225        1.17949883
       10.33026       56.06908795        1.23280604
       10.42996       55.12639919        1.20560993
       10.52965       56.25989316        1.17956624
       10.62934       56.32516118        1.18308861
       10.72904       55.99017168        1.19699608
       10.82873       57.34789402        1.20537535
       10.92842       56.55211623        1.21701264
       11.02812       57.41936835        1.16835356
       11.12781       56.06274239        1.19582259
       11.22750       56.75121959        1.21515894
       11.32720       56.16692044        1.24137783
       11.42689       55.60018556        1.19222380
       11.52658       58.54640371        1.20894877
       11.62628       57.77296134        1.21393424
       11.72597       59.66509498        1.25993938
       11.82567       59.72945086        1.29567690
       11.92536       57.75762926        1.19225431
       12.02505       59.41932292        1.21498470
       12.12475       60.01244087        1.21994825
       12.22444       65.44085396        1.35108497
       12.32413       70.27629587        1.42163017
       12.42383       72.07033695        1.36644320
       12.52352       78.44688109        1.41690496
       12.62321       86.45434087        1.52975332
       12.72291       95.93667270        1.56810359
       12.82260      112.00233182        1.84208088
       12.92229      124.06348736        1.76078794
       13.02199      140.08498280        1.85624013
       13.12168      169.10146933        2.07565231
       13.22137      208.27279847        2.37980907
       13.32107      241.40405615        2.64576389
       13.42076      277.49558641        2.73207422
       13.52045      315.92094361        2.95248409
       13.62015      335.05182938        2.94824120
       13.71984      334.70289254        3.07196616
       13.81953      313.84968065        3.02512188
       13.91923      288.66818005        2.72565345
       14.01892      231.27871628        2.37412915
       14.11861      176.99432669        2.16578911
       14.21831      141.43603084        1.93744733
       14.31800      116.52364453        1.85099356
       14.41769       89.76343427        1.56388659
       14.51739       75.54308484        1.39941504
       14.61708       66.86054492        1.31968159
       14.71677       59.54873546        1.26554814
       14.81647       55.55389910        1.28038776
       14.91616       53.40262453        1.15437544
       15.01585       51.23502646        1.15100820
       15.11555       51.82268200        1.17103264
       15.21524       52.46933663        1.21446346
       15.31493       51.65846015        1.23406688
       15.41463       51.41118492        1.19198336
       15.51432       51.41045740        1.15504186
       15.61402       50.70721660        1.17613322
       15.71371       48.03480427        1.13675102
       15.81340       48.50522637        1.18835014
       15.91310       51.08277472        1.18505781
       16.01279       48.62989409        1.10700796
       16.11248       47.59135879        1.12449072
       16.21218       49.11196349        1.17403284
       16.31187       49.99857255        1.18751630
       16.41156       48.63465549        1.14934335
       16.51126       50.43336675        1.19026921
       16.61095       50.85688760        1.15251756
       16.71064       52.30740177        1.20585336
       16.81034       55.37049986        1.24454692
       16.91003       53.63587538        1.18949950
       17.00972       56.64151086        1.17359596
       17.10942       57.30121602        1.24764645
       17.20911       64.34513673        1.33409968
       17.30880       66.78922478        1.37109503
       17.40850       70.97153586        1.41321604
       17.50819       70.90830482        1.37159953
       17.60788       77.36739906        1.47751455
       17.70758       78.11969303        1.49083606
       17.80727       76.23474087        1.49082436
       17.90696       72.10475907        1.35541440
       18.00666       70.16831338        1.36048465
       18.10635       64.56029369        1.26909363
       18.20604       61.20228991        1.35539169
       18.30574       58.63692334        1.26431075
       18.40543       58.88510258        1.23565149
       18.50512       56.53590604        1.24886325
       18.60482       53.10123375        1.19120720
       18.70451       53.50543440        1.26362055
       18.80420       54.23700568        1.19520101
       18.90390       50.51434868        1.14099170
       19.00359       52.27108099        1.13039247
       19.10328       50.30124777        1.17310987
       19.20298       50.98031199        1.21777943
       19.30267       49.47347171        1.15198445
       19.40237       46.45771769        1.10357020
       19.50206       48.14080410        1.15169486
       19.60175       48.05445980        1.13775561
       19.70145       46.28992369        1.17086082
       19.80114       49.54372703        1.14898937
       19.90083       48.55161035        1.09894992
       20.00053       49.79834495        1.13276807
       20.10022       48.08973405        1.12136559
       20.19991       50.58110509        1.22963501
       20.29961       49.61509065        1.15386721
       20.39930       51.94745654        1.21644393
       20.49899       50.71805419        1.18103064
       20.59869       51.78481757        1.21525161
       20.69838       53.42382093        1.27992450
       20.79807       54.19206546        1.22957131
       20.89777       55.04994229        1.21126582
       20.99746       57.51489275        1.25050578
       21.09715       59.61111709        1.34106887
       21.19685       60.11780166        1.33976066
       21.29654       60.01648442        1.30582250
       21.39623       58.94224241        1.29410210
       21.49593       56.44863498        1.24822169
       21.59562       54.50976158        1.25604877
       21.69531       49.22900319        1.24133124
       21.79501       49.02445841        1.13320102
       21.89470       49.38457402        1.11177722
       21.99439       45.44117979        1.11152708
       22.09409       47.69491252        1.14166998
       22.19378       43.71020243        1.16052831
       22.29347       46.63204837        1.11650732
       22.39317       46.39218555        1.14247190
       22.49286       47.03042464        1.14941023
       22.59255       45.74530632        1.14687463
       22.69225       44.92795057        1.19769765
       22.79194       44.68492925        1.07272174
       22.89163       45.42958329        1.06050290
       22.99133       48.03468360        1.12082876
       23.09102       45.67021432        1.13492317
       23.19072       46.29017259        1.14532040
       23.29041       46.83820608        1.13775776
       23.39010       49.92156826        1.18704455
       23.48980       46.86174760        1.15414195
       23.58949       46.11191120        1.16019312
       23.68918       47.55573285        1.23903318
       23.78888       46.84983272        1.09597253
       23.88857       48.81154904        1.13339997
       23.98826       45.61683996        1.12003043
       24.08796       46.19781112        1.10520169
       24.18765       44.46729040        1.16176912
       24.28734       44.64683741        1.10835588
       24.38704       46.12971615        1.14550116
       24.48673       47.10119350        1.15340032
       24.58642       45.31811828        1.16871908
       24.68612       46.40432579        1.18112498
       24.78581       44.64122951        1.06784629
       24.88550       45.46648476        1.07726337
       24.98520       46.03291984        1.12407104
       25.08489       47.74017064        1.16765293
       25.18458       47.70120994        1.19169270
       25.28428       48.73933552        1.16105177
       25.38397       50.51274185        1.17631767
       25.48366       49.56166112        1.17212210
       25.58336       52.57411476        1.25841298
       25.68305       59.09576900        1.30881019
       25.78274       67.96260304        1.32503100
       25.88244       81.63759909        1.48939052
       25.98213      104.36233233        1.69863564
       26.08182      133.88800127        1.97577538
       26.18152      162.53815146        2.23087979
       26.28121      185.76243576        2.25678237
       26.38090      202.68884879        2.37796239
       26.48060      197.15705845        2.40942895
       26.58029      183.02691970        2.42108555
       26.67998      164.21375136        2.16534689
       26.77968      127.55036723        1.88423441
       26.87937       99.69899114        1.64123846
       26.97907       85.01040116        1.50266522
       27.07876       72.49135101        1.49375076
       27.17845       71.62972669        1.41902144
       27.27815       78.10724511        1.44739226
       27.37784       84.10566838        1.56075233
       27.47753       86.42107996        1.55882712
       27.57723       88.34807327        1.65116821
       27.67692       86.93883092        1.59871178
       27.77661       80.47970740        1.46786832
       27.87631       76.24894176        1.40493035
       27.97600       66.11088072        1.33731939
       28.07569       57.49622638        1.31962913
       28.17539       55.92628599        1.24592100
       28.27508       51.65149039        1.19772188
       28.37477       53.46963635        1.24770658
       28.47447       52.20345137        1.22316182
       28.57416       50.82591605        1.30475794
       28.67385       55.30307600        1.21105549
       28.77355       56.25742585        1.19945226
       28.87324       56.47488300        1.23377802
       28.97293       59.23576182        1.26664377
       29.07263       58.16640228        1.36813345
       29.17232       59.15216915        1.25912065
       29.27201       57.46468827        1.26388957
       29.37171       55.87294262        1.28197771
       29.47140       51.75665167        1.21944259
       29.57109       53.34057154        1.31281529
       29.67079       49.12968746        1.14686187
       29.77048       51.09613804        1.17238385
       29.87017       48.92159862        1.12456348
       29.96987       49.63449160        1.18772659
       30.06956       49.63754231        1.22539455
       30.16925       48.36204747        1.13881268
       30.26895       50.08865786        1.16346131
       30.36864       50.88186880        1.19183353
       30.46833       50.86945799        1.20376117
       30.56803       54.37053600        1.31475837
       30.66772       59.76148557        1.28293453
       30.76742       59.58819098        1.25540626
       30.86711       61.94850428        1.30562969
       30.96680       62.11602703        1.31494977
       31.06650       67.51578209        1.43774850
       31.16619       64.50279255        1.32118573
       31.26588       61.44469447        1.28161061
       31.36558       59.54064847        1.27803879
       31.46527       61.81941918        1.35513377
       31.56496       62.32437259        1.38252830
       31.66466       64.96672838        1.32015605
       31.76435       73.78370312        1.40582279
       31.86404       78.36004354        1.42986702
       31.96374       91.26004404        1.57950667
       32.06343       89.72446034        1.62061626
       32.16312       84.28912826        1.47590912
       32.26282       81.75719568        1.48901851
       32.36251       75.44101875        1.48732858
       32.46220       67.20973309        1.42868745
       32.56190       59.93379346        1.37277095
       32.66159       57.97855606        1.28214412
       32.76128       54.06451645        1.21017579
       32.86098       54.51861883        1.23352094
       32.96067       54.06097785        1.24370360
       33.06036       51.83716169        1.23998098
       33.16006       52.07382123        1.17043453
       33.25975       55.32630044        1.24576943
       33.35944       54.63549277        1.24464646
       33.45914       55.51995244        1.30244463
       33.55883       60.07989447        1.35826259
       33.65852       62.29438790        1.28978183
       33.75822       66.94428473        1.33490142
       33.85791       74.59064763        1.41509291
       33.95760       81.96152369        1.52741209
       34.05730       92.02285492        1.60307177
       34.15699      100.73723702        1.65078891
       34.25668      112.75097714        1.74061158
       34.35638      136.06758237        1.96222147
       34.45607      175.86136420        2.35092323
       34.55577      223.42495613        2.52661939
       34.65546      296.49307410        2.79401238
       34.75515      378.19772029        3.21869869
       34.85485      443.00407383        3.45944001
       34.95454      473.74791125        3.69150240
       35.05423      443.57957725        3.69166930
       35.15393      389.69845685        3.24721576
       35.25362      298.94053235        2.88468255
       35.35331      216.34831376        2.51535302
       35.45301      158.94434095        2.24856133
       35.55270      115.47879096        1.86529488
       35.65239       91.98407338        1.60759882
       35.75209       83.50023504        1.52051297
       35.85178       79.96583295        1.48599117
       35.95147       72.48177531        1.44776001
       36.05117       68.56742031        1.37900614
       36.15086       62.79307163        1.26867838
       36.25055       59.61491061        1.29137348
       36.35025       54.90628197        1.26340360
       36.44994       52.83053556        1.26398279
       36.54963       54.17960667        1.22882880
       36.64933       52.98792343        1.19705797
       36.74902       53.29347015        1.21306339
       36.84871       52.46163533        1.19484172
       36.94841       52.96761113        1.29838933
       37.04810       50.90118713        1.12221643
       37.14779       51.64241931        1.15356686
       37.24749       51.15478390        1.18002466
       37.34718       51.08279694        1.20927151
       37.44687       49.30155950        1.27606816
       37.54657       50.47960392        1.17885158
       37.64626       48.54937149        1.15158240
       37.74595       46.75840548        1.11240165
       37.84565       48.16530598        1.19465696
       37.94534       50.03987459        1.24059206
       38.04503       50.20555452        1.12314049
       38.14473       50.37937752        1.13611563
       38.24442       51.14873986        1.16571134
       38.34412       48.31553501        1.18438218
       38.44381       52.23101005        1.33172801
       38.54350       51.10215036        1.17417261
       38.64320       52.16259397        1.18274144
       38.74289       51.64316403        1.19220773
       38.84258       55.22558265        1.23600240
       38.94228       58.32828652        1.33246803
       39.04197       59.16775656        1.21014037
       39.14166       65.61201532        1.32591645
       39.24136       70.33139123        1.36927640
       39.34105       70.85536087        1.42230173
       39.44074       69.77011911        1.53940481
       39.54044       70.75765874        1.38618837
       39.64013       67.52536815        1.34987552
       39.73982       65.41972157        1.33396070
       39.83952       62.05798547        1.29031831
       39.93921       59.50316437        1.33958348
       40.03890       59.12414244        1.22228446
       40.13860       56.05582146        1.18848241
       40.23829       56.24231108        1.23258227
       40.33798       54.52816839        1.25141118
       40.43768       57.44080789        1.34396859
       40.53737       58.42712094        1.25808328
       40.63706       61.32068357        1.31605464
       40.73676       58.15516544        1.27945742
       40.83645       61.34721767        1.32522039
       40.93614       64.10102622        1.37746295
       41.03584       66.40794952        1.31949519
       41.13553       76.35167530        1.41681315
       41.23522       88.05993887        1.55887796
       41.33492       99.97509003        1.73894424
       41.43461      121.81390462        1.98174299
       41.53430      145.35241676        2.02799912
       41.63400      171.60424664        2.25260078
       41.73369      189.28839834        2.31476301
       41.83338      199.99960750        2.44346346
       41.93308      202.33465494        2.43591614
       42.03277      203.82925520        2.23455292
       42.13247      212.50260432        2.39771225
       42.23216      251.94772539        2.61645095
       42.33185      332.76988237        3.23189669
       42.43155      414.43875228        3.55740684
       42.53124      520.27677442        3.86637252
       42.63093      609.19265662        4.19870095
       42.73063      650.99979183        4.36370507
       42.83032      625.63064007        4.35148071
       42.93001      561.88183340        3.96444449
       43.02971      426.10989753        3.25264376
       43.12940      303.98866499        2.79760922
       43.22909      205.13078975        2.41209401
       43.32879      146.61103806        2.14709215
       43.42848      109.56089864        1.81487866
       43.52817       85.47187796        1.53353996
       43.62787       75.07545771        1.43256520
       43.72756       67.79453608        1.39349369
       43.82725       64.92512269        1.42395244
       43.92695       61.05130471        1.25204610
       44.02664       58.93601636        1.22422763
       44.12633       58.65314959        1.26681209
       44.22603       57.42716861        1.30467169
       44.32572       57.09707410        1.37110076
       44.42541       58.50301009        1.32514594
       44.52511       57.38393185        1.27706007
       44.62480       59.67112652        1.32077684
       44.72449       60.92821999        1.29340293
       44.82419       63.94984685        1.48702313
       44.92388       64.71575953        1.24757709
       45.02357       72.04422838        1.32732033
       45.12327       81.75142211        1.45659747
       45.22296       93.46884916        1.59872169
       45.32265      105.59087093        1.87978155
       45.42235      128.94603823        1.89212801
       45.52204      166.35136014        2.12912736
       45.62174      208.67508856        2.43022803
       45.72143      262.80992017        2.73114097
       45.82112      296.48615270        3.17855265
       45.92082      316.96928248        2.79194363
       46.02051      307.02563938        2.80562146
       46.12020      264.61468770        2.60969148
       46.21990      213.83694354        2.46151195
       46.31959      170.61854863        2.37155562
       46.41928      133.22841889        1.93384288
       46.51898       96.75557312        1.65584119
       46.61867       77.50149652        1.47412502
       46.71836       68.88208767        1.42547790
       46.81806       62.16526608        1.40414571
       46.91775       56.78207852        1.16968010
       47.01744       57.87238274        1.20912511
       47.11714       59.58778424        1.25500994
       47.21683       62.15240440        1.31953329
       47.31652       66.17797881        1.48551583
       47.41622       73.18616186        1.47232720
       47.51591       86.25717327        1.60170661
       47.61560      103.72289691        1.74224055
       47.71530      128.32546094        1.95984667
       47.81499      152.40953935        2.19079300
       47.91468      185.81690781        2.11803634
       48.01438      212.87057843        2.26968530
       48.11407      225.31881979        2.42330469
       48.21376      217.98201736        2.48794581
       48.31346      193.14179322        2.42346868
       48.41315      167.04134085        2.09928384
       48.51284      133.93489228        1.94064310
       48.61254       99.63909511        1.66557860
       48.71223       81.01907685        1.52863492
       48.81192       70.37340168        1.42110440
       48.91162       58.44490599        1.16069683
       49.01131       52.90145096        1.14291098
       49.11100       54.14753010        1.19807612
       49.21070       49.16090956        1.19833670
       49.31039       52.02278364        1.26883648
       49.41009       52.06074307        1.19909723
       49.50978       47.81293778        1.17274084
       49.60947       48.26063314        1.18686208
       49.70917       50.29993397        1.25669790
       49.80886       46.99843581        1.18212054
       49.90855       48.21597546        1.09074173
       50.00825       49.33125933        1.12663206
       50.10794       50.53968009        1.16634970
       50.20763       51.56668027        1.23092881
       50.30733       51.77456796        1.29198904
       50.40702       51.07818154        1.20337863
       50.50671       55.24366470        1.25534481
       50.60641       54.96404215        1.25392507
       50.70610       55.50409854        1.29659048
       50.80579       55.36258808        1.27784184
       50.90549       57.31641802        1.17231635
       51.00518       54.08692958        1.14877648
       51.10487       55.71054580        1.20524105
       51.20457       56.21926228        1.28895518
       51.30426       55.73276443        1.27666831
       51.40395       57.98937396        1.24853699
       51.50365       59.11698651        1.27506583
       51.60334       58.82977527        1.29707179
       51.70303       59.91242731        1.39008711
       51.80273       61.40534209        1.29094200
       51.90242       61.42877024        1.20637080
       52.00211       61.48882884        1.21267062
       52.10181       64.42632280        1.28071880
       52.20150       61.66955830        1.37978153
       52.30119       66.35865320        1.37897517
       52.40089       65.02535711        1.34361364
       52.50058       61.50816824        1.33129317
       52.60027       58.41738945        1.31499109
       52.69997       59.21102569        1.45090908
       52.79966       57.20413475        1.19888922
       52.89935       60.72349755        1.19198567
       52.99905       63.77762415        1.24163026
       53.09874       73.86392581        1.37963236
       53.19844       86.45568746        1.70974045
       53.29813      104.47656429        1.67103602
       53.39782      128.64766116        1.91947669
       53.49752      143.79306744        2.03924350
       53.59721      159.97004150        2.15014611
       53.69690      171.69443429        2.44494980
       53.79660      178.86221161        2.09081964
       53.89629      171.28378440        2.02344622
       53.99598      157.30905398        1.98569605
       54.09568      136.93134285        1.93349586
       54.19537      121.81968943        1.98815937
       54.29506      107.33355676        1.71383415
       54.39476       99.03192189        1.65870639
       54.49445       88.33281253        1.56721643
       54.59414       84.89518178        1.55971747
       54.69384       83.43894229        1.64954153
       54.79353       81.30346164        1.39624451
       54.89322       75.97941537        1.34466996
       54.99292       71.59393565        1.34333348
       55.09261       70.58102486        1.38706155
       55.19230       68.18969227        1.46401764
       55.29200       64.10326728        1.32101295
       55.39169       61.37658824        1.33365677
       55.49138       57.50970226        1.28602121
       55.59108       56.30433370        1.31323956
       55.69077       55.31258131        1.33577239
       55.79046       54.35994019        1.15770118
       55.89016       54.42585024        1.15563790
       55.98985       55.77314350        1.17740894
       56.08954       56.95196803        1.22904189
       56.18924       58.52915834        1.34468296
       56.28893       65.76176424        1.30478341
       56.38862       74.59801406        1.43779025
       56.48832       81.69395706        1.53070069
       56.58801       93.72625777        1.68747083
       56.68770      103.08712362        1.82698495
       56.78740      108.37113389        1.60339305
       56.88709      115.50552099        1.67227484
       56.98679      111.22496054        1.64231453
       57.08648      105.13402778        1.69242820
       57.18617       97.03999800        1.68330183
       57.28587       81.83696663        1.44369065
       57.38556       77.33124552        1.49381620
       57.48525       67.93216909        1.42660944
       57.58495       59.43199015        1.36459702
       57.68464       57.41147269        1.35282699
       57.78433       52.84822281        1.13527360
       57.88403       53.10304940        1.15128500
       57.98372       53.75086944        1.17675722
       58.08341       51.32847375        1.24324061
       58.18311       51.15217542        1.26955982
       58.28280       54.01628731        1.22892955
       58.38249       49.77406702        1.23247606
       58.48219       51.56446882        1.28161533
       58.58188       51.50986011        1.29494286
       58.68157       51.16665507        1.26468410
       58.78127       51.85861749        1.11370466
       58.88096       52.90685215        1.10834736
       58.98065       54.44576390        1.16722601
       59.08035       56.89013264        1.27324939
       59.18004       60.88315429        1.33633453
       59.27973       59.16519947        1.24281468
       59.37943       64.11849242        1.33665963
       59.47912       66.51160672        1.41727132
       59.57881       68.64610322        1.50842233
       59.67851       74.78066267        1.46806815
       59.77820       84.02554706        1.43093948
       59.87789       90.00100940        1.47587304
       59.97759       96.00762974        1.59477199
       60.07728      103.60396839        1.79440223
       60.17697      106.84831132        1.73610419
       60.27667      104.65152089        1.67031831
       60.37636      105.64290803        1.71082407
       60.47605      102.68015810        1.75943112
       60.57575      100.41272341        1.90675101
       60.67544       92.01454035        1.56776728
       60.77514       87.27805435        1.45143716
       60.87483       80.26300270        1.36464345
       60.97452       72.43805822        1.36546213
       61.07422       66.65774954        1.47119766
       61.17391       66.97025142        1.27740868
       61.27360       63.93428319        1.29230152
       61.37330       67.13154033        1.37348621
       61.47299       68.18223996        1.44507896
       61.57268       67.63813338        1.63671009
       61.67238       68.61788247        1.34362779
       61.77207       70.84134261        1.32973113
       61.87176       72.39543807        1.32933325
       61.97146       68.23789087        1.33972098
       62.07115       68.27517503        1.51774063
       62.17084       64.96963088        1.29698933
       62.27054       63.33510228        1.33515550
       62.37023       61.00690051        1.36247649
       62.46992       59.53198590        1.39196315
       62.56962       59.73449648        1.56605056
       62.66931       55.92313807        1.22052191
       62.76900       58.04112031        1.21200878
       62.86870       61.53478244        1.22082460
       62.96839       67.06445835        1.31533954
       63.06808       71.90817352        1.51588958
       63.16778       84.09026715        1.45568241
       63.26747       99.83054144        1.64212171
       63.36716      118.11670826        1.85474552
       63.46686      137.61435170        2.06332220
       63.56655      156.75720055        2.34095704
       63.66624      176.07871865        2.11002529
       63.76594      197.62508973        2.17278987
       63.86563      206.53547048        2.21479112
       63.96532      205.19300874        2.30970970
       64.06502      195.71302692        2.41568902
       64.16471      180.56498259        2.14515336
       64.26440      151.87504119        2.04621838
       64.36410      131.93420196        1.94463725
       64.46379      105.57710604        1.83834270
       64.56349       96.52845488        1.78879143
       64.66318       79.69820747        1.42203851
       64.76287       68.44169447        1.30123672
       64.86257       66.06602882        1.27654645
       64.96226       57.63293577        1.24859586
       65.06195       57.67646757        1.35067824
       65.16165       52.20741679        1.15900897
       65.26134       54.16499309        1.20826407
       65.36103       53.24840002        1.25004516
       65.46073       55.20814236        1.31475134
       65.56042       53.71236996        1.35437621
       65.66011       55.38124096        1.19923551
       65.75981       54.86241929        1.18164187
       65.85950       56.66490174        1.19330277
       65.95919       59.59876899        1.28118774
       66.05889       65.44523040        1.38893945
       66.15858       70.23391160        1.36842436
       66.25827       80.60950071        1.51658404
       66.35797       93.03193720        1.69780279
       66.45766      108.41093893        1.94814163
       66.55735      121.26056106        2.06039200
       66.65705      138.66683174        1.95522833
       66.75674      150.33880787        1.98425531
       66.85643      164.20731109        2.05078468
       66.95613      172.45987293        2.18556407
       67.05582      164.03447419        2.14673090
       67.15551      168.07998691        2.06819041
       67.25521      155.39040294        2.08651689
       67.35490      137.78501258        2.06746298
       67.45459      123.77393312        2.06603486
       67.55429      108.87985499        1.85606239
       67.65398       94.37861747        1.54856846
       67.75367       78.25303554        1.39803429
       67.85337       75.00845916        1.38558775
       67.95306       77.55571657        1.50676830
       68.05275       78.60380064        1.43640664
       68.15245       85.50833943        1.48555966
       68.25214       99.01631625        1.69739326
       68.35184      106.45410947        1.83452460
       68.45153      113.51421047        2.08577078
       68.55122      121.25192592        1.85737524
       68.65092      129.10598195        1.78670675
       68.75061      130.90368672        1.81762541
       68.85030      130.64757727        1.85072396
       68.95000      127.48946493        2.07254976
       69.04969      118.04289594        1.68373546
       69.14938      105.79497899        1.63856316
       69.24908       87.49867366        1.59059148
       69.34877       77.43880719        1.54730667
       69.44846       72.78102304        1.73985107
       69.54816       64.86606087        1.28041408
       69.64785       58.90053008        1.20280029
       69.74754       58.53581490        1.21118520
       69.84724       52.48822303        1.17660798
       69.94693       51.66477028        1.31739800
       70.04662       50.05347308        1.06627241
       70.14632       47.92742751        1.08489456
       70.24601       48.90391336        1.17344653
       70.34570       48.94726576        1.24228394
       70.44540       47.98368556        1.44917599
       70.54509       47.86262557        1.13288265
       70.64478       49.20228286        1.14704828
       70.74448       49.80818782        1.17240692
       70.84417       48.91751860        1.20562307
       70.94386       47.70561841        1.30688384
       71.04356       49.29572641        1.09937983
       71.14325       52.49494816        1.17907196
       71.24294       53.74696005        1.25533586
       71.34264       54.87599892        1.34504922
       71.44233       54.16819626        1.49118151
       71.54202       53.08829561        1.20180038
       71.64172       55.58163864        1.19629043
       71.74141       53.99061821        1.15758400
       71.84110       53.60398678        1.19396716
       71.94080       52.75410265        1.29065779
       72.04049       50.91013183        1.07308267
       72.14019       51.10134004        1.12015471
       72.23988       52.84391052        1.19191928
       72.33957       52.78909309        1.33068803
       72.43927       50.40004946        1.43117067
       72.53896       51.23472265        1.15698646
       72.63865       55.70983318        1.17944324
       72.73835       56.19929316        1.15857961
       72.83804       58.35723347        1.24677925
       72.93773       62.02767495        1.36554296
       73.03743       63.81215996        1.20230972
       73.13712       66.57951533        1.29525365
       73.23681       71.75248654        1.41291283
       73.33651       67.80142902        1.51108111
       73.43620       69.60237929        1.65841517
       73.53589       69.16347142        1.33358053
       73.63559       68.79734070        1.30914346
       73.73528       68.91939868        1.30435638
       73.83497       66.75249100        1.36081629
       73.93467       63.83539349        1.40113995
       74.03436       63.31639964        1.23493102
       74.13405       58.88422179        1.24136316
       74.23375       56.15711346        1.26263910
       74.33344       55.98711242        1.38787850
       74.43313       55.34647530        1.43185247
       74.53283       58.01390597        1.24564577
       74.63252       56.86388210        1.22424898
       74.73221       53.78610282        1.18470026
       74.83191       60.25249555        1.33041425
       74.93160       62.07199353        1.36563380
       75.03129       63.72312602        1.23016815
       75.13099       74.12828340        1.37475630
       75.23068       86.62073762        1.55069738
       75.33037       99.15678132        1.82441025
       75.43007      105.15022017        1.90612686
       75.52976      126.54112344        1.81745622
       75.62945      139.96236454        1.91045060
       75.72915      157.69417434        2.02089658
       75.82884      163.44133653        2.21541475
       75.92854      166.17724170        2.09714040
       76.02823      173.96358477        2.01282631
       76.12792      172.26168540        2.09329830
       76.22762      168.95660262        2.18697086
       76.32731      157.87684228        2.38664044
       76.42700      150.11995952        2.19593362
       76.52670      137.63645062        1.93897248
       76.62639      119.86805535        1.78557392
       76.72608      104.38035841        1.63778239
       76.82578       98.54868819        1.83338909
       76.92547       93.78887636        1.43239170
       77.02516       96.43154645        1.50552635
       77.12486      105.15266752        1.65198935
       77.22455      118.02172303        1.86433077
       77.32424      132.24779111        2.42564149
       77.42394      141.88754418        2.00678425
       77.52363      150.09687717        1.99505753
       77.62332      160.28504021        2.05289365
       77.72302      170.57097579        2.12322254
       77.82271      177.00105843        2.53702308
       77.92240      178.37520018        1.95030144
       78.02210      174.36812509        2.08038844
       78.12179      169.81394908        2.19243391
       78.22148      156.22481699        2.22272660
       78.32118      142.85950193        2.46528271
       78.42087      126.89281182        1.82764107
       78.52056      109.86035194        1.75517051
       78.62026       94.44064772        1.61378636
       78.71995       81.76145180        1.50600426
       78.81964       75.16773329        1.61263768
       78.91934       65.98708805        1.17046352
       79.01903       61.79447291        1.24168574
       79.11872       57.96874850        1.25147588
       79.21842       57.19910434        1.32614151
       79.31811       55.56363367        1.47221222
       79.41780       55.41747539        1.19269196
       79.51750       56.70777414        1.22598880
       79.61719       56.47912695        1.22710533
       79.71689       62.21306404        1.33740401
       79.81658       60.71448101        1.40045652
       79.91627       60.90160629        1.18893415
       80.01597       59.41016007        1.20693143
       80.11566       63.37923526        1.30332739
       80.21535       64.67291246        1.40740613
       80.31505       65.88805491        1.68878424
       80.41474       64.82903138        1.28716886
       80.51443       67.93672830        1.31202996
       80.61413       69.50949725        1.37120996
       80.71382       69.27185233        1.41600904
       80.81351       70.89815075        1.60976367
       80.91321       75.35785038        1.22396901
       81.01290       83.10527924        1.38776356
       81.11259       92.56049327        1.58100707
       81.21229      105.61194502        1.82708805
       81.31198      116.07469857        2.13699915
       81.41167      140.71934620        1.84332539
       81.51137      165.42797970        2.05712959
       81.61106      189.12106747        2.29790913
       81.71075      209.67874929        2.50538945
       81.81045      223.82584879        2.74314173
       81.91014      262.26533938        2.28561981
       82.00983      294.15302593        2.58943338
       82.10953      331.05184178        3.07645313
       82.20922      347.97476311        3.50943707
       82.30891      358.21288717        3.73467292
       82.40861      374.86770066        3.10852605
       82.50830      372.59782339        3.09084722
       82.60799      365.26103207        3.29572687
       82.70769      357.63424202        3.54807245
       82.80738      345.45083030        3.33043322
       82.90707      326.72139191        2.62853924
       83.00677      296.11764508        2.66388186
       83.10646      279.07675111        3.04165505
       83.20615      260.51216944        3.26959541
       83.30585      230.18958541        2.90913333
       83.40554      197.26399421        2.23707353
       83.50524      167.50932670        2.01007499
       83.60493      135.78569867        1.99215291
       83.70462      117.69359668        2.09060785
       83.80432      107.71676233        1.74768112
       83.90401       90.55522054        1.34380618
       84.00370       79.18731147        1.31050429
       84.10340       71.46749992        1.48760411
       84.20309       67.33312294        1.75290830
       84.30278       67.69571705        1.42955837
       84.40248       63.13324753        1.21829760
       84.50217       64.13135870        1.20468674
       84.60186       60.87274245        1.32700064
       84.70156       64.88684689        1.79309274
       84.80125       61.98732084        1.22004736
       84.90094       64.49436988        1.11803289
       85.00064       59.80456652        1.10905285
       85.10033       62.87494489        1.34595325
       85.20002       64.45603061        2.33742039
       85.29972       63.57787976        1.22453795
       85.39941       62.59771505        1.23876924
       85.49910       67.48888698        1.25106543
       85.59880       65.15356906        1.38211098
       85.69849       62.14356183        2.42311590
       85.79818       64.71733367        1.16593587
       85.89788       64.74526108        1.13832467
       85.99757       66.15025046        1.18231243
       86.09726       66.51172579        1.36119048
       86.19696       65.09416886        2.58623413
       86.29665       66.78586128        1.23975388
       86.39634       66.89307490        1.26228652
       86.49604       64.97385776        1.22515005
       86.59573       62.38618930        1.27900601
       86.69542       67.27979643        2.77752135
       86.79512       60.64298160        1.09437526
       86.89481       57.40484263        1.04963255
       86.99451       57.79268284        1.09167338
       87.09420       55.49671999        1.19298664
       87.19389       54.02264427        2.78799500
       87.29359       52.01333124        1.10860914
       87.39328       52.22431536        1.12587203
       87.49297       49.58586608        1.06489918
       87.59267       50.64332042        1.09739753
       87.69236       45.91731398        3.12624478
       87.79205       49.42834227        1.01053541
       87.89175       50.03250230        1.00852872
       87.99144       51.18931424        1.06302387
       88.09113       51.42213368        1.13244251
       88.19083       44.23010339        5.55632724
       88.29052       49.98629935        1.12349912
       88.39021       49.17478329        1.12173757
       88.48991       51.37099930        1.10041340
       88.58960       48.63637635        1.03680360
       88.68929       48.29979857        8.00383863
       88.78899       49.64974865        1.01116687
       88.88868       51.34515958        1.00588822
       88.98837       48.84293291        1.02031560
       89.08807       49.56910283        1.05285013
       89.18776       53.17622882        8.87392232
       89.28745       49.10465714        1.06466631
       89.38715       51.64727839        1.10319644
       89.48684       53.31549777        1.09695268
       89.58653       56.24660862        1.10392485
       89.68623       61.52395382        9.36145997
       89.78592       59.02922264        1.09897819
       89.88561       63.47921506        1.11744892
       89.98531       67.39332642        1.18077883
       90.08500       75.07307497        1.29286233
       90.18469       89.81226605       11.79978922
       90.28439       82.23667507        1.38229499
       90.38408       88.97424699        1.46225372
       90.48377       93.59411137        1.47177738
       90.58347      103.37406449        1.52293301
       90.68316       93.15328476       11.25710779
       90.78286      101.33138177        1.44320373
       90.88255      105.01772367        1.42977991
       90.98224      104.09450332        1.47272545
       91.08194      104.92754107        1.52716107
       91.18163      103.20026554       12.08484074
       91.28132      103.72224388        1.56323721
       91.38102      102.16014842        1.59250641
       91.48071       96.23177861        1.50737020
       91.58040       84.90144791        1.36876719
       91.68010       73.13431121        9.60685246
       91.77979       76.17136227        1.24420237
       91.87948       68.63859114        1.16253736
       91.97918       65.55987464        1.17967771
       92.07887       62.36631637        1.19841423
       92.17856       52.84014171        8.38447044
       92.27826       61.71897281        1.23125084
       92.37795       61.75755626        1.26085480
       92.47764       64.61980790        1.22447608
       92.57734       67.46419498        1.21385094
       92.67703       70.22347411        8.03971617
       92.77672       76.71772987        1.24796775
       92.87642       84.17098043        1.28255687
       92.97611       91.89233901        1.39970337
       93.07580      102.34499009        1.68653467
       93.17550      100.79003427        3.14699475
       93.27519      101.69290634        1.54952083
       93.37488      104.56752637        1.52753838
       93.47458      110.93113075        1.59098543
       93.57427      109.54051587        1.82772272
       93.67396      112.33011964        2.50150975
       93.77366      111.59937645        1.54455285
       93.87335      109.85497811        1.46368457
       93.97304      108.67175022        1.51704843
       94.07274       95.29939866        1.84355783
       94.17243       99.76584120        2.15260302
       94.27212       91.57108647        1.53559365
       94.37182       85.99208952        1.44999719
       94.47151       79.61477666        1.33584661
       94.57121       75.96902002        1.72194321
       94.67090       71.88630596        1.69419000
       94.77059       69.32723464        1.29324494
       94.87029       66.49630148        1.15162391
       94.96998       62.57886505        1.13118846
       95.06967       59.78118216        1.27441330
       95.16937       62.00371278        1.77682276
       95.26906       61.43324443        1.36628618
       95.36875       61.88001906        1.24428663
       95.46845       57.75220192        1.15507507
       95.56814       60.96142786        1.36572247
       95.66783       56.07440064        1.47128932
       95.76753       56.41514702        1.21952547
       95.86722       54.87017307        1.02299210
       95.96691       55.76352536        1.06973777
       96.06661       56.92179355        1.38457155
       96.16630       53.77474462        1.43494916
       96.26599       51.74715713        1.26405913
       96.36569       50.76317466        1.12333977
       96.46538       51.46086073        1.09157364
       96.56507       47.59256510        1.29548368
       96.66477       48.63813712        1.27619436
       96.76446       48.75102459        1.14175799
       96.86415       48.79313575        0.98941266
       96.96385       50.00326059        1.03454737
       97.06354       48.99935450        1.38475682
       97.16323       48.13710961        1.31230535
       97.26293       49.14867631        1.24584185
       97.36262       50.18183929        1.16579452
       97.46231       49.91140388        1.06960642
       97.56201       51.07503703        1.37662680
       97.66170       50.32703134        1.22734845
       97.76139       51.28117417        1.12558952
       97.86109       54.31464318        1.04759631
       97.96078       55.60210157        1.08314221
       98.06047       55.77887922        1.50686320
       98.16017       55.31387685        1.33392841
       98.25986       55.31357967        1.27413541
       98.35956       55.40485670        1.20389421
       98.45925       57.32959113        1.14313957
       98.55894       58.90515533        1.51161141
       98.65864       58.13833342        1.28847677
       98.75833       60.98145739        1.23311657
       98.85802       64.45799562        1.18389051
       98.95772       67.03265134        1.19935287
       99.05741       67.68079122        1.67306352
       99.15710       74.05081379        1.50535452
       99.25680       74.75839899        1.46538775
       99.35649       77.70758383        1.42307884
       99.45618       84.01207067        1.37923313
       99.55588       83.10259681        1.83284694
       99.65557       87.82339462        1.55468912
       99.75526       89.34237961        1.46978519
       99.85496       89.54930962        1.40053774
       99.95465       90.74163987        1.38222759
      100.05434       90.84045057        1.97017126
      100.15404       90.31711452        1.65464487
      100.25373       92.41309702        1.65381145
      100.35342       91.30862712        1.63741044
      100.45312       87.52448648        1.46265618
      100.55281       85.90941649        1.90315101
      100.65250       83.58751613        1.52920201
      100.75220       79.71221018        1.38305973
      100.85189       78.33621965        1.30999793
      100.95158       76.37651436        1.25886167
      101.05128       75.00342959        1.77846765
      101.15097       70.93133388        1.42920163
      101.25066       70.94048309        1.41215928
      101.35036       71.27812148        1.42780379
      101.45005       72.58736992        1.35499232
      101.54974       74.67941653        1.71196222
      101.64944       77.02379120        1.41861911
      101.74913       79.82919712        1.36090415
      101.84882       82.71752706        1.34862058
      101.94852       84.38496147        1.43492194
      102.04821       85.91684600        1.74402989
      102.14791       89.22013598        1.60188741
      102.24760       91.41321558        1.60788632
      102.34729       90.55379799        1.59373115
      102.44699       89.94725981        1.61596640
      102.54668       92.50984498        1.71980568
      102.64637       95.87322145        1.56385472
      102.74607       97.49709696        1.50201112
      102.84576       97.22888423        1.47144800
      102.94545       94.64060435        1.65329852
      103.04515       93.63532330        1.74084314
      103.14484       93.34200113        1.62391293
      103.24453       92.28004812        1.58967892
      103.34423       87.93909067        1.53904183
      103.44392       88.42230675        1.67173751
      103.54361       87.91873860        1.61934515
      103.64331       85.87175045        1.45666965
      103.74300       85.22131127        1.38416290
      103.84269       84.66292337        1.35571217
      103.94239       81.61967450        1.59946607
      104.04208       78.81651298        1.52042918
      104.14177       80.69879598        1.49690010
      104.24147       76.62088221        1.45763798
      104.34116       80.78985291        1.50628132
      104.44085       80.24306511        1.70493807
      104.54055       76.64572652        1.50844646
      104.64024       82.62146174        1.47247819
      104.73993       78.37920503        1.36837958
      104.83963       75.52412911        1.29398281
      104.93932       72.49971383        1.53679503
      105.03901       72.97227419        1.45277745
      105.13871       71.07271408        1.38042928
      105.23840       66.67608267        1.33607591
      105.33809       66.33494301        1.34050432
      105.43779       62.60976508        1.51510487
      105.53748       62.56610105        1.35825544
      105.63717       60.23690506        1.22150627
      105.73687       58.56806687        1.14620471
      105.83656       53.98075941        1.07208314
      105.93626       52.80048748        1.34360590
      106.03595       53.96316381        1.23113129
      106.13564       51.21190431        1.15906666
      106.23534       49.38282344        1.15212143
      106.33503       50.98396551        1.18254311
      106.43472       48.65367791        1.36560077
      106.53442       49.23310950        1.19488249
      106.63411       46.87865941        1.05907278
      106.73380       48.15273623        1.02306692
      106.83350       48.70113378        1.01353493
      106.93319       46.64589026        1.28574809
      107.03288       50.72914513        1.18854047
      107.13258       51.90261348        1.16695831
      107.23227       51.64112500        1.18089758
      107.33196       52.64693729        1.18911170
      107.43166       51.14102428        1.40811184
      107.53135       51.69101205        1.22145615
      107.63104       55.97076750        1.15751264
      107.73074       60.31806804        1.15302813
      107.83043       61.83017844        1.15269609
      107.93012       63.96298814        1.55105769
      108.02982       63.91693391        1.35708662
      108.12951       64.62677959        1.29771255
      108.22920       68.08579740        1.31079027
      108.32890       69.77545902        1.31438228
      108.42859       70.04776773        1.67142316
      108.52828       71.27623374        1.43022188
      108.62798       74.24003313        1.32368867
      108.72767       76.60046615        1.29066834
      108.82736       73.99319717        1.29634423
      108.92706       72.76171615        1.62802028
      109.02675       73.96719084        1.43605525
      109.12644       74.75483412        1.40909139
      109.22614       73.77252419        1.40085589
      109.32583       72.56511997        1.51388974
      109.42552       72.33818962        1.59435878
      109.52522       70.92578690        1.42424236
      109.62491       69.19752036        1.33800661
      109.72461       65.76293843        1.24690932
      109.82430       64.27386503        1.15145470
      109.92399       59.77996419        1.44359135
      110.02369       59.62994480        1.26256986
      110.12338       59.63881336        1.25443687
      110.22307       59.96370133        1.24844974
      110.32277       56.69254131        1.23946588
      110.42246       54.01756507        1.47092662
      110.52215       53.09268075        1.23507061
      110.62185       52.45653213        1.15698149
      110.72154       53.13386541        1.08638068
      110.82123       50.03239866        1.08861651
      110.92093       55.25824937        1.33458982
      111.02062       52.39491963        1.20047596
      111.12031       55.76390565        1.24786515
      111.22001       53.33045695        1.19737055
      111.31970       53.45646345        1.30101795
      111.41939       59.95402397        1.42604997
      111.51909       55.78784524        1.24801532
      111.61878       57.79216502        1.19666935
      111.71847       58.83502157        1.12340545
      111.81817       64.32188819        1.27512213
      111.91786       65.06758401        1.34969935
      112.01755       67.60595798        1.34348512
      112.11725       69.37704709        1.37136243
      112.21694       73.77007229        1.40798091
      112.31663       72.27002054        1.53558855
      112.41633       76.57507796        1.55306141
      112.51602       80.02743429        1.46223885
      112.61571       82.35736164        1.41513874
      112.71541       86.42517601        1.36634293
      112.81510       88.58660487        1.55119963
      112.91479       90.31268850        1.59555002
      113.01449       91.45240230        1.57233507
      113.11418       90.47404389        1.55862142
      113.21387       89.40947564        1.54231833
      113.31357       92.08708679        1.73848613
      113.41326       92.02462416        1.65160147
      113.51296       91.94647442        1.55291546
      113.61265       90.60824892        1.48739363
      113.71234       94.61745832        1.45201353
      113.81204       93.95998402        1.65765264
      113.91173       87.56687817        1.55033942
      114.01142       86.97596473        1.52950492
      114.11112       87.63450850        1.53450572
      114.21081       86.19112028        1.53274585
      114.31050       86.62530789        1.74259363
      114.41020       82.61911115        1.57235584
      114.50989       80.27188562        1.45080264
      114.60958       80.63093160        1.40711839
      114.70928       75.77649380        1.31542342
      114.80897       75.84219216        1.49258276
      114.90866       69.14670986        1.34391357
      115.00836       70.81152388        1.35371826
      115.10805       71.02652337        1.36316669
      115.20774       70.14195188        1.37510889
      115.30744       67.67175745        1.55069092
      115.40713       70.29310372        1.43162982
      115.50682       70.83011052        1.35674753
      115.60652       70.32856552        1.30293413
      115.70621       70.89069715        1.25723281
      115.80590       71.52617918        1.47325607
      115.90560       73.37942602        1.35258654
      116.00529       78.12507183        1.41144656
      116.10498       79.38218524        1.43768644
      116.20468       83.22476392        1.50607284
      116.30437       87.98607302        1.84628142
      116.40406       90.20824476        1.62834004
      116.50376       95.48395342        1.58342323
      116.60345      102.35675050        1.57409740
      116.70314      109.52891371        1.57931211
      116.80284      120.57540634        1.96964480
      116.90253      126.84463035        1.81767196
      117.00222      137.99667854        1.88163168
      117.10192      140.14373640        1.94716404
      117.20161      146.38867647        2.01474155
      117.30131      153.67395022        2.47077465
      117.40100      157.15476954        2.10083179
      117.50069      164.68004845        2.04303654
      117.60039      173.75878723        2.00900176
      117.70008      179.10631613        1.97636609
      117.79977      183.58059606        2.45227677
      117.89947      192.73261377        2.18502722
      117.99916      194.89112375        2.22359801
      118.09885      194.63681645        2.26379067
      118.19855      197.76182873        2.39028533
      118.29824      197.14653007        2.61624474
      118.39793      200.03594980        2.39293153
      118.49763      202.18166412        2.27029866
      118.59732      202.45642994        2.19343639
      118.69701      194.99910545        2.24193304
      118.79671      197.02996183        2.43351371
      118.89640      189.24833883        2.22303793
      118.99609      185.46614447        2.19806703
      119.09579      178.96604988        2.18387733
      119.19548      175.87281023        2.36527160
      119.29517      171.94421340        2.42940439
      119.39487      162.62650544        2.17120667
      119.49456      158.47511842        2.01949452
      119.59425      150.98762161        1.91385508
      119.69395      142.25477701        1.95927863
      119.79364      135.76781311        1.93398204
      119.89333      131.34798997        1.84074165
      119.99303      134.71283615        1.82030863
      120.09272      128.07259930        1.81490776
      120.19241      126.26525733        2.02541859
      120.29211      125.54992897        1.99902990
      120.39180      124.01132367        1.89533703
      120.49149      119.12719311        1.72740161
      120.59119      120.42424456        1.68581226
      120.69088      117.34801336        1.79126319
      120.79057      116.91575566        1.74955160
      120.89027      116.44032741        1.71412735
      120.98996      117.54707403        1.70908466
      121.08966      115.39660977        1.70592718
      121.18935      121.47221434        2.00667804
      121.28904      115.03671407        1.90286554
      121.38874      118.66339325        1.82780974
      121.48843      118.14293514        1.72256037
      121.58812      118.81949128        1.64762474
      121.68782      119.44423713        1.83012105
      121.78751      120.41891975        1.75108959
      121.88720      119.74212182        1.72379542
      121.98690      120.76573509        1.74418108
      122.08659      120.49366942        1.77708788
      122.18628      122.85690407        2.08181748
      122.28598      119.55108757        1.93097695
      122.38567      119.26782964        1.84715225
      122.48536      119.29398760        1.74747611
      122.58506      116.04870717        1.63219116
      122.68475      112.31623326        1.81934212
      122.78444      109.03672387        1.68772125
      122.88414      108.46606722        1.66897673
      122.98383      105.87400147        1.68254704
      123.08352      101.43572726        1.63256631
      123.18322      100.01095315        1.89057480
      123.28291       95.66819382        1.68026830
      123.38260       94.84730200        1.61505148
      123.48230       95.64952715        1.56322009
      123.58199       96.43161923        1.46710143
      123.68168       94.73069660        1.65918552
      123.78138       94.08364290        1.49177064
      123.88107       92.15277946        1.44215028
      123.98076       86.74086300        1.42477419
      124.08046       88.93927706        1.42762593
      124.18015       86.07076277        1.58944311
      124.27984       83.46049988        1.40214893
      124.37954       83.18241091        1.32089348
      124.47923       81.10236481        1.27320839
      124.57893       74.49961004        1.29978256
