        5.04651       55.93775811        2.55136236
        5.14621       55.91269054        2.45832771
        5.24590       52.59265556        2.34975932
        5.34559       52.96870227        2.16283587
        5.44529       58.38006308        2.47070845
        5.54498       51.07686240        1.94346876
        5.64467       53.81662435        1.97766612
        5.74437       50.65912395        1.73186014
        5.84406       51.49987929        1.76717401
        5.94375       49.23619535        1.72544588
        6.04345       53.63882448        1.75021985
        6.14314       47.14337350        1.50201958
        6.24283       51.15681758        1.61652761
        6.34253       50.16644447        1.52678326
        6.44222       48.09593147        1.57400726
        6.54191       48.63115449        1.49943210
        6.64161       50.00122653        1.44040943
        6.74130       50.72796364        1.45673689
        6.84099       49.84471736        1.43349991
        6.94069       49.46266109        1.44947872
        7.04038       46.78921771        1.30119026
        7.14007       49.03497001        1.32939441
        7.23977       48.26748988        1.29585458
        7.33946       51.38379527        1.35764785
        7.43915       48.78818737        1.30553162
        7.53885       48.90895427        1.28303429
        7.63854       49.58198712        1.23473323
        7.73823       50.40156427        1.29268714
        7.83793       49.83281226        1.24384537
        7.93762       48.58335913        1.28108404
        8.03732       49.91915354        1.16465208
        8.13701       48.24315793        1.13969859
        8.23670       48.03783086        1.15330984
        8.33640       48.08340337        1.15417551
        8.43609       47.16792010        1.19506204
        8.53578       48.61714973        1.13015922
        8.63548       50.16139100        1.13483499
        8.73517       47.76088777        1.08615077
        8.83486       50.17411188        1.11605859
        8.93456       46.18630393        1.06513944
        9.03425       47.68766021        1.05067524
        9.13394       46.96605289        1.04463209
        9.23364       47.17269826        1.06222170
        9.33333       46.55037662        1.07665205
        9.43302       45.74867140        1.06770757
        9.53272       47.94586441        1.05619905
        9.63241       48.50038383        1.09233646
        9.73210       49.14767266        1.09742241
        9.83180       47.52755450        1.12443680
        9.93149       48.74504622        1.13064511
       10.03118       48.00194775        1.07954427
       10.13088       46.99906195        1.04257426
       10.23057       48.00990415        1.10350534
       10.33026       48.53032488        1.14684600
       10.42996       48.16648574        1.12687004
       10.52965       50.39598723        1.11637981
       10.62934       49.36189207        1.10748091
       10.72904       51.20993964        1.14477896
       10.82873       48.90755813        1.11302079
       10.92842       50.04619024        1.14482067
       11.02812       49.94598527        1.08958691
       11.12781       51.57669742        1.14701348
       11.22750       49.59428831        1.13588054
       11.32720       50.93146952        1.18210893
       11.42689       53.58680810        1.17057322
       11.52658       52.83609428        1.14846192
       11.62628       54.41601029        1.17821793
       11.72597       55.05862826        1.21035427
       11.82567       58.91393659        1.28700354
       11.92536       61.72209236        1.23289433
       12.02505       65.91526828        1.28020622
       12.12475       70.85001302        1.32628537
       12.22444       77.12652903        1.46763876
       12.32413       87.27841543        1.58553461
       12.42383       97.04798373        1.58733355
       12.52352      111.09064691        1.68837842
       12.62321      128.92847362        1.87124127
       12.72291      146.98568487        1.94480957
       12.82260      176.67921472        2.31926669
       12.92229      191.04431660        2.19052850
       13.02199      221.07188916        2.33890396
       13.12168      249.90264354        2.53086023
       13.22137      279.97206032        2.76658844
       13.32107      304.84425106        2.98024863
       13.42076      332.10866762        2.99505201
       13.52045      352.41418661        3.12285178
       13.62015      360.47168374        3.06127585
       13.71984      346.50594045        3.12750547
       13.81953      317.74741203        3.04481458
       13.91923      276.88741687        2.66885522
       14.01892      223.67913435        2.33460948
       14.11861      172.33241195        2.13712233
       14.21831      133.53822675        1.88240438
       14.31800      108.35835820        1.78478206
       14.41769       84.04705666        1.51324818
       14.51739       68.97635299        1.33714863
       14.61708       61.66715704        1.26739656
       14.71677       54.46374251        1.21031706
       14.81647       53.12884634        1.25225598
       14.91616       49.27377738        1.10889735
       15.01585       50.51043584        1.14302358
       15.11555       51.76359219        1.17058008
       15.21524       51.56506654        1.20413838
       15.31493       46.68663345        1.17319174
       15.41463       47.87252262        1.15030024
       15.51432       46.84100786        1.10254420
       15.61402       47.69631225        1.14077178
       15.71371       46.70796825        1.12109736
       15.81340       47.52279245        1.17643218
       15.91310       47.29672708        1.14035672
       16.01279       47.67580295        1.09626182
       16.11248       46.80353874        1.11532109
       16.21218       46.80699283        1.14627153
       16.31187       46.54006409        1.14578244
       16.41156       48.26640412        1.14518195
       16.51126       48.24071654        1.16423418
       16.61095       49.97041562        1.14260564
       16.71064       49.69534963        1.17547022
       16.81034       50.61488678        1.18992404
       16.91003       52.09605918        1.17245514
       17.00972       53.30087593        1.13853935
       17.10942       57.95284948        1.25498262
       17.20911       61.87308045        1.30835086
       17.30880       63.30354453        1.33492177
       17.40850       67.95185422        1.38293468
       17.50819       69.97592379        1.36276045
       17.60788       75.51450766        1.45989060
       17.70758       75.28542334        1.46366754
       17.80727       73.97225458        1.46869137
       17.90696       71.80482376        1.35282935
       18.00666       67.17009351        1.33120822
       18.10635       66.22923364        1.28570688
       18.20604       56.32980070        1.30033830
       18.30574       56.89457962        1.24554034
       18.40543       53.58347727        1.17871397
       18.50512       55.61231163        1.23881030
       18.60482       52.33466045        1.18276579
       18.70451       51.92815994        1.24501863
       18.80420       52.14673285        1.17207515
       18.90390       51.70008944        1.15456838
       19.00359       50.16554051        1.10751557
       19.10328       48.55989122        1.15276907
       19.20298       48.65003942        1.18974567
       19.30267       48.34783249        1.13897056
       19.40237       46.69070975        1.10654895
       19.50206       46.84326432        1.13622747
       19.60175       45.89923598        1.11207147
       19.70145       43.02723960        1.12892393
       19.80114       44.68318611        1.09118953
       19.90083       44.44192856        1.05145447
       20.00053       47.53795318        1.10687862
       20.10022       45.37075899        1.08930193
       20.19991       47.42915947        1.19079597
       20.29961       48.83825510        1.14498003
       20.39930       50.13998812        1.19524023
       20.49899       52.88739436        1.20634047
       20.59869       52.47648747        1.22359784
       20.69838       53.61929336        1.28251122
       20.79807       53.69987617        1.22418131
       20.89777       53.65699489        1.19600684
       20.99746       57.44252227        1.24994795
       21.09715       56.92171141        1.31058761
       21.19685       56.89002807        1.30339230
       21.29654       57.73481679        1.28089529
       21.39623       57.63193474        1.27981596
       21.49593       54.97118439        1.23194328
       21.59562       54.81418537        1.25979898
       21.69531       51.51490529        1.27016269
       21.79501       49.62753740        1.14038613
       21.89470       47.21589067        1.08721099
       21.99439       46.90139652        1.12951311
       22.09409       45.20987195        1.11163953
       22.19378       44.75184919        1.17453665
       22.29347       46.25981153        1.11223451
       22.39317       47.02981811        1.15053627
       22.49286       45.18986527        1.12683098
       22.59255       46.90204030        1.16154767
       22.69225       47.78200568        1.23550794
       22.79194       47.17107999        1.10246114
       22.89163       52.18496952        1.13710169
       22.99133       55.25421719        1.20264009
       23.09102       60.52558113        1.30745669
       23.19072       61.71875499        1.32345082
       23.29041       64.38374890        1.33501692
       23.39010       65.80119639        1.36383944
       23.48980       64.30678220        1.35308725
       23.58949       61.62836832        1.34224576
       23.68918       60.19444144        1.39486981
       23.78888       55.29177387        1.19120298
       23.88857       49.20381516        1.13817247
       23.98826       47.94565485        1.14857213
       24.08796       44.85198045        1.08913540
       24.18765       46.23947967        1.18498780
       24.28734       45.90865745        1.12416817
       24.38704       44.08142032        1.11990815
       24.48673       44.24781712        1.11801388
       24.58642       46.59275661        1.18531479
       24.68612       43.90658820        1.14901068
       24.78581       43.08609075        1.04921922
       24.88550       43.48679362        1.05367197
       24.98520       45.84513778        1.12197730
       25.08489       46.80847359        1.15638001
       25.18458       45.52968166        1.16437929
       25.28428       46.00865531        1.12815970
       25.38397       48.59738728        1.15393700
       25.48366       49.97723673        1.17726216
       25.58336       55.84260426        1.29733090
       25.68305       59.01079522        1.30810811
       25.78274       70.32710080        1.34824611
       25.88244       88.00199160        1.54698961
       25.98213      104.82230174        1.70271777
       26.08182      128.83306174        1.93813428
       26.18152      151.70291843        2.15482099
       26.28121      181.41949686        2.23031879
       26.38090      194.31749387        2.32808726
       26.48060      196.15656498        2.40366641
       26.58029      188.09077478        2.45523532
       26.67998      166.02768069        2.17781316
       26.77968      138.00804678        1.96103611
       26.87937      109.98512133        1.72476702
       26.97907       87.20741930        1.52235875
       27.07876       79.11350584        1.56114081
       27.17845       74.98930270        1.45235876
       27.27815       79.32642124        1.45897800
       27.37784       81.12021207        1.53292513
       27.47753       84.50310099        1.54161439
       27.57723       86.31713789        1.63226581
       27.67692       81.70483046        1.54984363
       27.77661       78.47920408        1.44967711
       27.87631       70.01970219        1.34627431
       27.97600       62.20096025        1.29723358
       28.07569       56.51184378        1.30848171
       28.17539       51.99201547        1.20135526
       28.27508       50.82725366        1.18831354
       28.37477       50.17776625        1.20877355
       28.47447       47.57255627        1.16767643
       28.57416       48.60856655        1.27611737
       28.67385       52.15200908        1.17613589
       28.77355       53.06486244        1.16500693
       28.87324       55.54302367        1.22374413
       28.97293       58.08907544        1.25450657
       29.07263       57.25455072        1.35757605
       29.17232       57.81425596        1.24497252
       29.27201       55.13935733        1.23818247
       29.37171       54.20523381        1.26286106
       29.47140       50.93514599        1.20991611
       29.57109       49.52726513        1.26508419
       29.67079       49.36095358        1.14978121
       29.77048       47.28152796        1.12783089
       29.87017       48.14252843        1.11575021
       29.96987       47.79702317        1.16567586
       30.06956       46.41140899        1.18498987
       30.16925       47.73146969        1.13154937
       30.26895       48.00132921        1.13908922
       30.36864       47.64075949        1.15333276
       30.46833       51.57189541        1.21229925
       30.56803       51.58813481        1.28078807
       30.66772       55.46373610        1.23598560
       30.76742       59.84658255        1.25837054
       30.86711       61.39818946        1.30003394
       30.96680       63.12730414        1.32590409
       31.06650       62.14791742        1.37940646
       31.16619       62.19264654        1.29744676
       31.26588       59.24466930        1.25859395
       31.36558       57.63432770        1.25756218
       31.46527       56.29436360        1.29314867
       31.56496       60.88374458        1.36664102
       31.66466       61.11134623        1.28044963
       31.76435       71.25556110        1.38166193
       31.86404       76.75607521        1.41534019
       31.96374       85.20053899        1.52612619
       32.06343       86.12625584        1.58788203
       32.16312       87.45504106        1.50381749
       32.26282       83.87171024        1.50854306
       32.36251       76.55722728        1.49862827
       32.46220       71.62149445        1.47533580
       32.56190       70.21841153        1.48670741
       32.66159       62.82660544        1.33514906
       32.76128       63.14734824        1.30854724
       32.86098       61.81806208        1.31408693
       32.96067       59.24444619        1.30244305
       33.06036       59.03013304        1.32379887
       33.16006       58.55818409        1.24168399
       33.25975       55.11674708        1.24363000
       33.35944       53.45856449        1.23134567
       33.45914       56.92054462        1.31908082
       33.55883       58.66691548        1.34237829
       33.65852       61.22163824        1.27881756
       33.75822       64.82822314        1.31378068
       33.85791       73.05544674        1.40063919
       33.95760       82.27395045        1.53062130
       34.05730       91.86873839        1.60201724
       34.15699      102.23882945        1.66344264
       34.25668      120.95241025        1.80365808
       34.35638      148.91420380        2.05406507
       34.45607      184.78036761        2.41099518
       34.55577      231.01658907        2.57033670
       34.65546      293.79313191        2.78151041
       34.75515      369.50067930        3.18110084
       34.85485      431.64181458        3.41407604
       34.95454      443.36820358        3.56811386
       35.05423      425.82360427        3.61548166
       35.15393      383.60306120        3.22163021
       35.25362      315.77503711        2.96706271
       35.35331      242.63650587        2.66671761
       35.45301      183.43972776        2.41813435
       35.55270      138.97332227        2.04832939
       35.65239      104.86223148        1.71754326
       35.75209       86.03820385        1.54387185
       35.85178       77.48999508        1.46295055
       35.95147       70.74036010        1.43044073
       36.05117       68.87866044        1.38240427
       36.15086       64.33121824        1.28443097
       36.25055       63.43111899        1.33249206
       36.35025       62.83019612        1.35212590
       36.44994       61.11891908        1.36017227
       36.54963       56.76631936        1.25816940
       36.64933       57.31949746        1.24544596
       36.74902       56.08778314        1.24481297
       36.84871       52.73019620        1.19813025
       36.94841       53.09437175        1.30018961
       37.04810       49.74183242        1.10952376
       37.14779       50.22202342        1.13774684
       37.24749       48.49358844        1.14902691
       37.34718       48.91177020        1.18342505
       37.44687       47.85097766        1.25732501
       37.54657       48.08916176        1.15071822
       37.64626       50.05752380        1.16961181
       37.74595       48.92473545        1.13817738
       37.84565       47.38575675        1.18513776
       37.94534       46.84270194        1.20039382
       38.04503       44.74813131        1.06033470
       38.14473       47.18426987        1.09957961
       38.24442       49.89333368        1.15147999
       38.34412       48.29740780        1.18437953
       38.44381       49.26712434        1.29349688
       38.54350       50.04805174        1.16217253
       38.64320       48.98078997        1.14618637
       38.74289       50.43616832        1.17836240
       38.84258       53.36040896        1.21509708
       38.94228       54.46681139        1.28767091
       39.04197       60.77755544        1.22678975
       39.14166       63.96467912        1.30933300
       39.24136       71.18874060        1.37789438
       39.34105       69.07804561        1.40452324
       39.44074       70.67560776        1.54969908
       39.54044       70.34769855        1.38240366
       39.64013       68.25035086        1.35738935
       39.73982       66.63951601        1.34664750
       39.83952       63.91418179        1.30980217
       39.93921       62.47728986        1.37305207
       40.03890       57.26599131        1.20306915
       40.13860       57.59692831        1.20499808
       40.23829       56.58848151        1.23661467
       40.33798       56.11772479        1.26982728
       40.43768       56.36901375        1.33156823
       40.53737       58.86448285        1.26303746
       40.63706       54.32337439        1.23861857
       40.73676       59.64105810        1.29600834
       40.83645       59.02888844        1.30007460
       40.93614       64.47717320        1.38177355
       41.03584       67.53891464        1.33098381
       41.13553       77.21376062        1.42509703
       41.23522       90.58807878        1.58153047
       41.33492      112.73938680        1.84778942
       41.43461      136.40401016        2.09852760
       41.53430      159.13887868        2.12341220
       41.63400      190.00581442        2.37226140
       41.73369      206.51088426        2.41967266
       41.83338      204.83362219        2.47368823
       41.93308      216.24977425        2.51996988
       42.03277      217.82225687        2.31153238
       42.13247      241.87432877        2.56113954
       42.23216      290.94924108        2.81600101
       42.33185      351.80329147        3.32582783
       42.43155      421.81989863        3.59050596
       42.53124      488.48102900        3.74297943
       42.63093      536.56312369        3.93146749
       42.73063      554.40174133        4.01451533
       42.83032      538.83095571        4.02719586
       42.93001      507.64475847        3.76197469
       43.02971      424.54931339        3.24709662
       43.12940      330.34757319        2.91956976
       43.22909      247.90254118        2.65610441
       43.32879      186.57977010        2.42597319
       43.42848      142.31442301        2.07120379
       43.52817      105.35163150        1.70407095
       43.62787       85.54735061        1.53006223
       43.72756       72.21306708        1.43867832
       43.82725       64.59850254        1.42061379
       43.92695       62.37383779        1.26582888
       44.02664       58.80416959        1.22307915
       44.12633       57.21209784        1.25132228
       44.22603       54.29529738        1.26869292
       44.32572       58.25448985        1.38524176
       44.42541       54.13152194        1.27471662
       44.52511       56.75121826        1.27020798
       44.62480       55.88275040        1.27823012
       44.72449       61.92105196        1.30418634
       44.82419       59.75872972        1.43752472
       44.92388       65.03696117        1.25091583
       45.02357       71.52226276        1.32272469
       45.12327       86.97825592        1.50299511
       45.22296      104.35414940        1.69021004
       45.32265      124.35406337        2.04169202
       45.42235      144.07681151        2.00149190
       45.52204      176.07249694        2.19160218
       45.62174      207.84887819        2.42578865
       45.72143      228.67903433        2.54507887
       45.82112      244.28644565        2.88051649
       45.92082      255.88739385        2.50370502
       46.02051      247.08719495        2.51214206
       46.12020      236.57663639        2.46561336
       46.21990      217.12241879        2.48108949
       46.31959      198.76443639        2.56268918
       46.41928      170.43287613        2.19050648
       46.51898      141.83787141        2.00836782
       46.61867      109.35523060        1.75333632
       46.71836       89.74611221        1.62859907
       46.81806       76.19353678        1.55557966
       46.91775       65.08321169        1.25286280
       47.01744       63.71777074        1.26921702
       47.11714       61.22800600        1.27247539
       47.21683       65.67161218        1.35679643
       47.31652       75.18576611        1.58418744
       47.41622       82.16917130        1.56085311
       47.51591       96.92650084        1.69882974
       47.61560      116.18441619        1.84507892
       47.71530      131.80191275        1.98682552
       47.81499      148.09759197        2.15965313
       47.91468      167.81298961        2.01192023
       48.01438      175.88906531        2.06085466
       48.11407      183.26503912        2.18269380
       48.21376      183.12191702        2.27799712
       48.31346      175.10291443        2.30649605
       48.41315      161.32880186        2.06304455
       48.51284      140.24801118        1.98665935
       48.61254      121.64642082        1.84210961
       48.71223      101.45291857        1.71212131
       48.81192       88.67479076        1.59654700
       48.91162       69.59412961        1.26730983
       49.01131       64.11763685        1.25898200
       49.11100       55.23807575        1.21035225
       49.21070       52.64372603        1.24044139
       49.31039       49.84740553        1.24216033
       49.41009       50.99315088        1.18691493
       49.50978       49.22784360        1.19024720
       49.60947       49.40515618        1.20112492
       49.70917       48.23512661        1.23077340
       49.80886       48.61868670        1.20261675
       49.90855       49.78963034        1.10866607
       50.00825       48.42342249        1.11638925
       50.10794       50.10617367        1.16153502
       50.20763       51.47603161        1.23007124
       50.30733       53.80547391        1.31742419
       50.40702       51.66789515        1.21055564
       50.50671       54.96532028        1.25239888
       50.60641       56.30440659        1.26941810
       50.70610       55.60016788        1.29795780
       50.80579       57.32306854        1.30060177
       50.90549       55.02260003        1.14873945
       51.00518       57.34915541        1.18326904
       51.10487       55.27504067        1.20072579
       51.20457       56.40844276        1.29137072
       51.30426       55.50315613        1.27426239
       51.40395       56.12047031        1.22840063
       51.50365       59.70191813        1.28162294
       51.60334       61.05590686        1.32173383
       51.70303       58.92794234        1.37882731
       51.80273       61.47900295        1.29195951
       51.90242       63.37165789        1.22561152
       52.00211       61.51388825        1.21314422
       52.10181       64.27915547        1.27948631
       52.20150       62.50603237        1.38940664
       52.30119       63.37679434        1.34774566
       52.40089       61.65552270        1.30842322
       52.50058       61.65375696        1.33312238
       52.60027       62.73930359        1.36322753
       52.69997       59.97480719        1.46054767
       52.79966       57.66602978        1.20396308
       52.89935       63.46595723        1.21894940
       52.99905       72.66479378        1.32597872
       53.09874       81.99801597        1.45429872
       53.19844       97.46044774        1.81633496
       53.29813      108.78469758        1.70571456
       53.39782      124.49974568        1.88835387
       53.49752      132.49213555        1.95705798
       53.59721      148.58304768        2.07176552
       53.69690      153.57305828        2.31129063
       53.79660      154.66562508        1.94297532
       53.89629      153.89360244        1.91716778
       53.99598      146.36928530        1.91502738
       54.09568      135.99647958        1.92717755
       54.19537      124.13662413        2.00751146
       54.29506      112.13838650        1.75239416
       54.39476      103.22570586        1.69402666
       54.49445       94.68149952        1.62322178
       54.59414       91.02742753        1.61571457
       54.69384       82.40161924        1.63950030
       54.79353       84.72440964        1.42575211
       54.89322       84.09232530        1.41530593
       54.99292       79.98812920        1.42058511
       55.09261       72.68871606        1.40798521
       55.19230       71.37651224        1.49828331
       55.29200       67.34238002        1.35438269
       55.39169       60.63328149        1.32576820
       55.49138       61.14224588        1.32643052
       55.59108       58.54015255        1.33941415
       55.69077       55.71784052        1.34092529
       55.79046       55.44541418        1.16946480
       55.89016       54.03908907        1.15172295
       55.98985       56.57828523        1.18613115
       56.08954       59.92383074        1.26106727
       56.18924       63.84291370        1.40492140
       56.28893       71.96896508        1.36552545
       56.38862       80.62003825        1.49529175
       56.48832       94.15716749        1.64434392
       56.58801      105.59019960        1.79216809
       56.68770      109.46681968        1.88343939
       56.78740      115.74070768        1.65774945
       56.88709      114.82240657        1.66759130
       56.98679      106.42052616        1.60647949
       57.08648       97.46074603        1.62935995
       57.18617       88.95677844        1.61151156
       57.28587       74.45498002        1.37693745
       57.38556       67.57096435        1.39614765
       57.48525       61.16039716        1.35356697
       57.58495       56.76526559        1.33375357
       57.68464       56.32350261        1.34014520
       57.78433       53.84594284        1.14619327
       57.88403       52.05151216        1.13999903
       57.98372       51.84773707        1.15587453
       58.08341       52.54824764        1.25821411
       58.18311       52.19085669        1.28267013
       58.28280       54.80374265        1.23811939
       58.38249       51.86513495        1.25842529
       58.48219       54.70602505        1.32047078
       58.58188       53.66065178        1.32204745
       58.68157       51.52863867        1.26940203
       58.78127       54.03604267        1.13714381
       58.88096       55.05360789        1.13090572
       58.98065       56.24591020        1.18666096
       59.08035       54.23335497        1.24327836
       59.18004       57.34239168        1.29697360
       59.27973       56.77531508        1.21757912
       59.37943       63.22830265        1.32755354
       59.47912       67.17529583        1.42462282
       59.57881       69.54472410        1.51859337
       59.67851       74.45712683        1.46514431
       59.77820       85.08532609        1.44025595
       59.87789       92.10457432        1.49340820
       59.97759      101.19261118        1.63787085
       60.07728      104.70332873        1.80430134
       60.17697      105.63005613        1.72642460
       60.27667      109.12201365        1.70620498
       60.37636      108.54255440        1.73464186
       60.47605      105.14291897        1.78088967
       60.57575       97.98109195        1.88371066
       60.67544       93.35899656        1.57954677
       60.77514       85.09093781        1.43329168
       60.87483       78.89021681        1.35310884
       60.97452       72.62551240        1.36749069
       61.07422       69.84724835        1.50643273
       61.17391       69.18985626        1.29874739
       61.27360       67.71295656        1.33036637
       61.37330       64.96492611        1.35128846
       61.47299       67.95776067        1.44295479
       61.57268       68.02506631        1.64171221
       61.67238       68.58489099        1.34355274
       61.77207       70.18865272        1.32380676
       61.87176       70.51458462        1.31210830
       61.97146       69.23351832        1.34975716
       62.07115       68.50423973        1.52057922
       62.17084       70.12009521        1.34791281
       62.27054       65.92230540        1.36252985
       62.37023       67.19730944        1.43050952
       62.46992       65.06253392        1.45573812
       62.56962       63.69798792        1.61769749
       62.66931       63.31362100        1.29924800
       62.76900       72.17102042        1.35243326
       62.86870       79.72628083        1.39075985
       62.96839       83.79936906        1.47145890
       63.06808       96.47400024        1.75767648
       63.16778      103.90506548        1.61955142
       63.26747      111.08952249        1.73325378
       63.36716      118.22798597        1.85596977
       63.46686      124.00169062        1.95804343
       63.56655      132.16338689        2.14803772
       63.66624      143.86321503        1.90546245
       63.76594      158.37510172        1.94278763
       63.86563      169.42853356        2.00376474
       63.96532      177.94532146        2.14924940
       64.06502      180.07886698        2.31635837
       64.16471      171.62878448        2.09113109
       64.26440      160.68921411        2.10579510
       64.36410      147.71713555        2.05918545
       64.46379      135.34084746        2.08395983
       64.56349      115.84337832        1.96129224
       64.66318      101.51375606        1.60643348
       64.76287       82.31474496        1.42799657
       64.86257       70.57332430        1.31982796
       64.96226       63.51800373        1.31131065
       65.06195       59.00852202        1.36650441
       65.16165       55.41025354        1.19438816
       65.26134       54.49444262        1.21217247
       65.36103       53.99826798        1.25908359
       65.46073       55.02592685        1.31281553
       65.56042       55.05807450        1.37155743
       65.66011       57.01198634        1.21705974
       65.75981       56.72376284        1.20182190
       65.85950       60.51152317        1.23353689
       65.95919       61.61462944        1.30300948
       66.05889       64.54509180        1.37956723
       66.15858       72.29467499        1.38871348
       66.25827       77.30338372        1.48526100
       66.35797       90.12223426        1.67118052
       66.45766      100.18961493        1.87262387
       66.55735      111.17218774        1.97249082
       66.65705      128.35150898        1.88076770
       66.75674      140.13740451        1.91542129
       66.85643      157.02218353        2.00528199
       66.95613      165.42397215        2.14038620
       67.05582      169.07459461        2.18024747
       67.15551      169.82997399        2.07943974
       67.25521      161.74963541        2.12964955
       67.35490      151.55486583        2.16975712
       67.45459      129.12200963        2.11098372
       67.55429      123.62185278        1.97911591
       67.65398      101.07870693        1.60326780
       67.75367       87.43984941        1.47857272
       67.85337       78.01409367        1.41348745
       67.95306       74.03492136        1.47226086
       68.05275       75.84764851        1.41112424
       68.15245       80.93755349        1.44534577
       68.25214       91.79742818        1.63423621
       68.35184       96.90705992        1.75006851
       68.45153      102.57677983        1.98234785
       68.55122      109.51622674        1.76480339
       68.65092      117.73489105        1.70584692
       68.75061      127.87972811        1.79665067
       68.85030      132.41051599        1.86362845
       68.95000      125.61423776        2.05749636
       69.04969      125.26397772        1.73523093
       69.14938      115.79500398        1.71517437
       69.24908       99.91099206        1.70072588
       69.34877       89.51651643        1.66461388
       69.44846       82.83119599        1.85709439
       69.54816       73.77713166        1.36621585
       69.64785       66.94843339        1.28294430
       69.74754       57.80858253        1.20383094
       69.84724       53.37581410        1.18677242
       69.94693       54.14463499        1.34901303
       70.04662       49.78199836        1.06356455
       70.14632       48.59859514        1.09269356
       70.24601       46.30653902        1.14196745
       70.34570       46.29115242        1.20821944
       70.44540       47.64704908        1.44433514
       70.54509       49.34895634        1.15061273
       70.64478       48.35923830        1.13735670
       70.74448       51.09992633        1.18778728
       70.84417       51.52552910        1.23768814
       70.94386       49.99724835        1.33826188
       71.04356       51.83401116        1.12763911
       71.14325       53.13169783        1.18644853
       71.24294       53.92867141        1.25769803
       71.34264       56.14836228        1.36086707
       71.44233       55.46082357        1.50921807
       71.54202       55.18218450        1.22558986
       71.64172       54.34317359        1.18305592
       71.74141       52.93007886        1.14632874
       71.84110       53.93322384        1.19786485
       71.94080       50.95882731        1.26866225
       72.04049       51.43059189        1.07877423
       72.14019       52.62140308        1.13696499
       72.23988       51.20029923        1.17338697
       72.33957       53.48495513        1.33971176
       72.43927       55.10265568        1.49697613
       72.53896       52.68026426        1.17347253
       72.63865       53.93094797        1.16060304
       72.73835       54.83992778        1.14463985
       72.83804       57.76924527        1.24068724
       72.93773       58.45182116        1.32567699
       73.03743       60.84269302        1.17409757
       73.13712       63.03758536        1.26040722
       73.23681       65.79448787        1.35294870
       73.33651       62.49441932        1.45073669
       73.43620       64.37285585        1.59489984
       73.53589       63.92698257        1.28210519
       73.63559       64.91697588        1.27175065
       73.73528       66.59174178        1.28227402
       73.83497       67.15372507        1.36517280
       73.93467       62.98873979        1.39203442
       74.03436       65.37705172        1.25518991
       74.13405       63.68851719        1.29146929
       74.23375       62.07390705        1.32801365
       74.33344       61.08105144        1.45017112
       74.43313       61.80052545        1.51366143
       74.53283       64.65388695        1.31555195
       74.63252       64.81818452        1.30768215
       74.73221       65.42269814        1.30736312
       74.83191       71.60997215        1.45124354
       74.93160       74.27478113        1.49476924
       75.03129       78.45308559        1.36592402
       75.13099       85.61376186        1.47829608
       75.23068       91.04095447        1.59031256
       75.33037      101.67119910        1.84790260
       75.43007      106.01821398        1.91439097
       75.52976      111.73335802        1.70724000
       75.62945      122.51598703        1.78665870
       75.72915      134.27773942        1.86364342
       75.82884      139.62269863        2.04630634
       75.92854      143.60757641        1.94835452
       76.02823      148.86619179        1.86069205
       76.12792      150.13757708        1.95310650
       76.22762      153.79725700        2.08583446
       76.32731      149.49957179        2.32220614
       76.42700      149.69153497        2.19317012
       76.52670      148.22670359        2.01330371
       76.62639      136.96364059        1.91015710
       76.72608      127.22615569        1.80993583
       76.82578      123.44140058        2.05408835
       76.92547      120.31437454        1.62416208
       77.02516      116.15178701        1.65376040
       77.12486      119.91451273        1.76537980
       77.22455      122.58233470        1.90066562
       77.32424      128.00560104        2.38650695
       77.42394      136.77613468        1.97031793
       77.52363      134.71361449        1.88939112
       77.62332      144.14651950        1.94606438
       77.72302      145.90033485        1.96235167
       77.82271      147.53708588        2.31430285
       77.92240      154.63325839        1.81470469
       78.02210      149.68487779        1.92621819
       78.12179      149.60310392        2.05675985
       78.22148      141.72212004        2.11636138
       78.32118      137.13657583        2.41536139
       78.42087      130.95052659        1.85724017
       78.52056      120.55024666        1.83961106
       78.62026      111.26990295        1.75304194
       78.71995      102.05657771        1.68407876
       78.81964       96.67770208        1.83059776
       78.91934       84.63978981        1.32672547
       79.01903       74.32460820        1.36262153
       79.11872       70.67968914        1.38276291
       79.21842       66.19981806        1.42738753
       79.31811       66.25267884        1.60849931
       79.41780       62.18340689        1.26393958
       79.51750       64.09197176        1.30394893
       79.61719       62.97982333        1.29633917
       79.71689       65.56681963        1.37339615
       79.81658       62.29853189        1.41895072
       79.91627       64.51698460        1.22409861
       80.01597       64.10668913        1.25416994
       80.11566       63.80051423        1.30791420
       80.21535       63.48685568        1.39464193
       80.31505       67.62029905        1.71126202
       80.41474       64.98217801        1.28893473
       80.51443       69.40651736        1.32646162
       80.61413       72.25727287        1.39844468
       80.71382       77.29858347        1.49649955
       80.81351       82.56050995        1.73815896
       80.91321       87.67739891        1.32104795
       81.01290      100.93368917        1.53063495
       81.11259      119.94443681        1.80180845
       81.21229      134.45077299        2.06397223
       81.31198      147.87889701        2.41519701
       81.41167      172.71679987        2.04483488
       81.51137      191.61500317        2.21640364
       81.61106      210.81055854        2.42838327
       81.71075      225.54738108        2.60037876
       81.81045      236.50847800        2.82155015
       81.91014      261.95594327        2.28466538
       82.00983      278.20910995        2.51734871
       82.10953      294.53456475        2.89868785
       82.20922      296.04363666        3.23177769
       82.30891      301.79451213        3.42192715
       82.40861      306.38954911        2.80417704
       82.50830      298.42998281        2.75959872
       82.60799      305.46570459        3.00824740
       82.70769      296.37515537        3.22369674
       82.80738      300.69535148        3.10297810
       82.90707      288.20123430        2.46589375
       83.00677      278.62512380        2.58291015
       83.10646      267.57787639        2.97769107
       83.20615      248.06848689        3.18975880
       83.30585      234.74422314        2.93877795
       83.40554      218.16227010        2.35473556
       83.50524      197.35493632        2.18448464
       83.60493      176.81277704        2.27696003
       83.70462      160.88841941        2.44847267
       83.80432      147.84105999        2.05073094
       83.90401      124.61341080        1.57856137
       84.00370      103.33285493        1.49857536
       84.10340       87.46579272        1.64693688
       84.20309       82.88347285        1.94624188
       84.30278       74.16541632        1.49692993
       84.40248       70.40194382        1.28708835
       84.50217       68.14758276        1.24224191
       84.60186       65.07527455        1.37250084
       84.70156       66.50074280        1.81569548
       84.80125       65.91344348        1.25849919
       84.90094       64.98808736        1.12253217
       85.00064       64.60347927        1.15310023
       85.10033       62.63509328        1.34362191
       85.20002       67.46578972        2.39206799
       85.29972       65.77919438        1.24588463
       85.39941       66.75845695        1.27970121
       85.49910       63.50450331        1.21362909
       85.59880       67.90576879        1.41139922
       85.69849       65.52154275        2.48886009
       85.79818       65.93628699        1.17713403
       85.89788       63.65562500        1.12887175
       85.99757       65.97978874        1.18100043
       86.09726       66.44048069        1.36071063
       86.19696       64.19055461        2.56861641
       86.29665       63.91327696        1.21290159
       86.39634       61.15180343        1.20688250
       86.49604       63.66418050        1.21290901
       86.59573       57.80392788        1.23116916
       86.69542       57.34515432        2.56384845
       86.79512       57.19241604        1.06285302
       86.89481       57.65769915        1.05214666
       86.99451       55.99680411        1.07470979
       87.09420       53.91619118        1.17602923
       87.19389       57.00392677        2.86472397
       87.29359       52.65407029        1.11564920
       87.39328       51.06088162        1.11342198
       87.49297       51.16647435        1.08199994
       87.59267       49.06800500        1.08033584
       87.69236       48.20770985        3.20412037
       87.79205       50.25909925        1.01921158
       87.89175       50.82174076        1.01666945
       87.99144       49.54518712        1.04594713
       88.09113       49.77969453        1.11435327
       88.19083       52.29300129        6.04442135
       88.29052       50.78714306        1.13270590
       88.39021       49.37515115        1.12423761
       88.48991       49.34931306        1.07866673
       88.58960       48.89605035        1.03977062
       88.68929       57.37160326        8.72757573
       88.78899       49.00316452        1.00472513
       88.88868       50.52770534        0.99800572
       88.98837       51.89593196        1.05202917
       89.08807       49.11703213        1.04821641
       89.18776       43.67106810        8.04061334
       89.28745       49.51058976        1.06927205
       89.38715       50.95373391        1.09594134
       89.48684       54.19821550        1.10623630
       89.58653       56.15596368        1.10323655
       89.68623       60.57583721        9.29046409
       89.78592       59.52749740        1.10383128
       89.88561       64.19218986        1.12394380
       89.98531       66.90678111        1.17670725
       90.08500       72.42861033        1.27000528
       90.18469       74.59984927       10.75038172
       90.28439       74.86695665        1.31880685
       90.38408       79.70560465        1.38380276
       90.48377       88.94491548        1.43478914
       90.58347       92.14502979        1.43754129
       90.68316      118.28124923       12.69839769
       90.78286       93.29481178        1.38465771
       90.88255       97.38706671        1.37674260
       90.98224       96.26683660        1.41614413
       91.08194      101.15421705        1.49952974
       91.18163       87.22123605       11.10576763
       91.28132       99.97243047        1.53480219
       91.38102      100.50271022        1.57973614
       91.48071       92.69394192        1.47949309
       91.58040       91.17464701        1.41900957
       91.68010      104.02640846       11.47212942
       91.77979       85.98020157        1.32258829
       91.87948       83.28223569        1.28145420
       91.97918       78.48770053        1.29158552
       92.07887       77.19711699        1.33425736
       92.17856       81.65206791       10.43513334
       92.27826       75.00523972        1.35820896
       92.37795       72.39945371        1.36593773
       92.47764       71.69459926        1.29032593
       92.57734       74.44061681        1.27561865
       92.67703       85.37865266        8.87127704
       92.77672       79.41807676        1.27009735
       92.87642       82.57803693        1.27052731
       92.97611       87.89775209        1.36900451
       93.07580       91.40050959        1.59349236
       93.17550       88.73481675        2.95209957
       93.27519       93.16519050        1.48296009
       93.37488       95.29940811        1.45806900
       93.47458       98.81047346        1.50119393
       93.57427      101.43780523        1.75865187
       93.67396       99.80332763        2.35730757
       93.77366      100.07995349        1.46234697
       93.87335       99.26587371        1.39109492
       93.97304       95.34114804        1.42055703
       94.07274       94.19321888        1.83309583
       94.17243       88.80441994        2.03050342
       94.27212       90.28367638        1.52497478
       94.37182       89.44096811        1.47924233
       94.47151       86.94017994        1.39656893
       94.57121       82.46711111        1.79481933
       94.67090       81.24642794        1.80204102
       94.77059       78.99436817        1.38119546
       94.87029       74.75557214        1.22163228
       94.96998       70.83514503        1.20407161
       95.06967       68.89239896        1.36877982
       95.16937       67.31359648        1.85203195
       95.26906       64.81033964        1.40376498
       95.36875       62.42174398        1.24997737
       95.46845       60.36205758        1.18121395
       95.56814       58.84853759        1.34199581
       95.66783       59.15983330        1.51167047
       95.76753       57.69160065        1.23352956
       95.86722       54.25075626        1.01736853
       95.96691       54.20533692        1.05482442
       96.06661       53.59809034        1.34363316
       96.16630       52.58638947        1.41920981
       96.26599       53.54074629        1.28609942
       96.36569       49.84313415        1.11328442
       96.46538       50.04722738        1.07662309
       96.56507       49.15046681        1.31683339
       96.66477       48.07494207        1.26899501
       96.76446       44.82381068        1.09485675
       96.86415       47.07881453        0.97199813
       96.96385       48.88601289        1.02307442
       97.06354       49.77088723        1.39591382
       97.16323       46.73400757        1.29321502
       97.26293       49.27047948        1.24762206
       97.36262       46.44316577        1.12158770
       97.46231       47.80031756        1.04685854
       97.56201       51.36650427        1.38082014
       97.66170       50.16120234        1.22554549
       97.76139       52.97424469        1.14430054
       97.86109       53.05341954        1.03550849
       97.96078       53.11191605        1.05871374
       98.06047       54.70730958        1.49254002
       98.16017       53.44260317        1.31132827
       98.25986       58.88880312        1.31507783
       98.35956       57.69522925        1.22885351
       98.45925       61.63686442        1.18570501
       98.55894       60.76738757        1.53570563
       98.65864       65.81726194        1.37155509
       98.75833       62.77380641        1.25141848
       98.85802       69.42529544        1.22910382
       98.95772       70.79186628        1.23291617
       99.05741       69.79198372        1.69939919
       99.15710       72.36622474        1.48832152
       99.25680       75.64236713        1.47434543
       99.35649       82.00944373        1.46243123
       99.45618       81.50795284        1.35865509
       99.55588       82.54422567        1.82698224
       99.65557       84.68427990        1.52676622
       99.75526       86.12968644        1.44322190
       99.85496       86.49881794        1.37658433
       99.95465       84.96355386        1.33747299
      100.05434       91.10079610        1.97337647
      100.15404       88.40251241        1.63720640
      100.25373       86.26724477        1.59782432
      100.35342       86.46233343        1.59338885
      100.45312       83.16670256        1.42582528
      100.55281       87.71076669        1.92347863
      100.65250       83.29520384        1.52679342
      100.75220       80.54740876        1.39058536
      100.85189       78.29176962        1.30986731
      100.95158       77.92001453        1.27182334
      101.05128       76.92239800        1.80153101
      101.15097       77.94690812        1.49886194
      101.25066       78.86411196        1.48962833
      101.35036       77.39904938        1.48844335
      101.45005       78.38997158        1.40865866
      101.54974       74.05887848        1.70511413
      101.64944       76.28856760        1.41205787
      101.74913       77.47095617        1.34078994
      101.84882       77.19061339        1.30277533
      101.94852       80.42748111        1.40093568
      102.04821       81.45282316        1.69816669
      102.14791       81.26729129        1.52868394
      102.24760       83.81163521        1.53945724
      102.34729       82.30436171        1.51924528
      102.44699       83.19491538        1.55404764
      102.54668       84.32551774        1.64180152
      102.64637       84.31028463        1.46619674
      102.74607       87.97150638        1.42653892
      102.84576       87.17080454        1.39302842
      102.94545       88.97539232        1.60302997
      103.04515       87.36777336        1.68151364
      103.14484       85.41497018        1.55328394
      103.24453       86.08905831        1.53537912
      103.34423       86.48530268        1.52647252
      103.44392       85.82949741        1.64720053
      103.54361       84.72834158        1.58980905
      103.64331       87.03200684        1.46680940
      103.74300       89.42932876        1.41839710
      103.84269       85.33583037        1.36137390
      103.94239       84.35054834        1.62646161
      104.04208       83.78970590        1.56822874
      104.14177       83.99633433        1.52763770
      104.24147       84.91852495        1.53526923
      104.34116       80.85849633        1.50720444
      104.44085       83.23890250        1.73697809
      104.54055       78.79754833        1.52987429
      104.64024       75.91716886        1.41140202
      104.73993       76.67009044        1.35354807
      104.83963       72.09189929        1.26432034
      104.93932       71.02684260        1.52130826
      105.03901       69.54906007        1.41838513
      105.13871       69.83693878        1.36857028
      105.23840       67.83296466        1.34792226
      105.33809       70.19831490        1.37943126
      105.43779       68.97467608        1.59090560
      105.53748       66.46815974        1.40042238
      105.63717       65.11577699        1.27046511
      105.73687       64.13841161        1.19993212
      105.83656       60.14258578        1.13207434
      105.93626       59.02767991        1.42120501
      106.03595       61.67770790        1.31679578
      106.13564       57.32822966        1.22682178
      106.23534       56.09997063        1.22849978
      106.33503       55.60408554        1.23539240
      106.43472       52.90313047        1.42446689
      106.53442       52.72445703        1.23690626
      106.63411       51.61584515        1.11168813
      106.73380       51.98019320        1.06329020
      106.83350       54.93085061        1.07684544
      106.93319       53.50499209        1.37762819
      107.03288       54.50228563        1.23234134
      107.13258       54.40664716        1.19510416
      107.23227       57.11044782        1.24232876
      107.33196       55.43403592        1.22052791
      107.43166       53.51256469        1.44077894
      107.53135       57.41475343        1.28780579
      107.63104       56.19776551        1.16008244
      107.73074       59.83433040        1.14858923
      107.83043       61.77810999        1.15242269
      107.93012       64.20363278        1.55427463
      108.02982       65.56017467        1.37475546
      108.12951       62.05875204        1.27178950
      108.22920       61.43809055        1.24509630
      108.32890       66.56949821        1.28392513
      108.42859       69.05623262        1.65980181
      108.52828       70.51858693        1.42282648
      108.62798       70.69836576        1.29180820
      108.72767       68.67650282        1.22197608
      108.82736       70.43340087        1.26485305
      108.92706       65.85374986        1.54872308
      109.02675       66.63950958        1.36296985
      109.12644       63.81933495        1.30169526
      109.22614       65.86962894        1.32357553
      109.32583       66.88678394        1.45343093
      109.42552       67.73916308        1.54288156
      109.52522       66.30547560        1.37710364
      109.62491       63.12142791        1.27787766
      109.72461       63.88208661        1.22909592
      109.82430       63.30406458        1.14290816
      109.92399       62.40466298        1.47535248
      110.02369       61.84386100        1.28613354
      110.12338       60.14771548        1.26003435
      110.22307       60.70551822        1.25641465
      110.32277       57.23173032        1.24560125
      110.42246       59.55350923        1.54505002
      110.52215       58.88646412        1.30122233
      110.62185       57.48506117        1.21160692
      110.72154       55.04903507        1.10606646
      110.82123       56.01641484        1.15233610
      110.92093       55.52646763        1.33808629
      111.02062       56.38159918        1.24571667
      111.12031       56.26980327        1.25376817
      111.22001       57.18277425        1.24026124
      111.31970       58.95050743        1.36675817
      111.41939       55.59992716        1.37333623
      111.51909       57.02379809        1.26205369
      111.61878       56.50868567        1.18347315
      111.71847       62.07008549        1.15422346
      111.81817       64.87881472        1.28089358
      111.91786       63.03689305        1.32862302
      112.01755       69.24091173        1.35996399
      112.11725       73.30995324        1.41015395
      112.21694       72.41193153        1.39515237
      112.31663       74.21616028        1.55652241
      112.41633       77.06656155        1.55835366
      112.51602       78.78226401        1.45102439
      112.61571       82.51149673        1.41673294
      112.71541       83.95236707        1.34678698
      112.81510       85.79025090        1.52665376
      112.91479       87.60860487        1.57162432
      113.01449       90.77860690        1.56678560
      113.11418       89.26642339        1.54840600
      113.21387       89.50332383        1.54341891
      113.31357       90.89027262        1.72739979
      113.41326       93.60794695        1.66615068
      113.51296       93.75698735        1.56852064
      113.61265       93.23436659        1.50921338
      113.71234       91.05439689        1.42449752
      113.81204       92.15619506        1.64186470
      113.91173       89.44502662        1.56727123
      114.01142       89.62617943        1.55306516
      114.11112       89.74964942        1.55331714
      114.21081       82.93354322        1.50360889
      114.31050       84.81509654        1.72450029
      114.41020       84.92796731        1.59459999
      114.50989       87.56632246        1.51595753
      114.60958       84.72620479        1.44288513
      114.70928       81.64992484        1.36598670
      114.80897       79.18025405        1.52553790
      114.90866       82.06140846        1.46498386
      115.00836       77.67706439        1.41843087
      115.10805       80.84932375        1.45514898
      115.20774       82.50243374        1.49228183
      115.30744       82.67775916        1.71524269
      115.40713       83.91181040        1.56521649
      115.50682       84.54452110        1.48327869
      115.60652       87.08032558        1.45095145
      115.70621       88.05698929        1.40231502
      115.80590       89.30427802        1.64753162
      115.90560       91.54806829        1.51202965
      116.00529       94.58126445        1.55418736
      116.10498       94.85538600        1.57271572
      116.20468       98.58427815        1.64035664
      116.30437      101.24257015        1.98177858
      116.40406      101.34050786        1.72688629
      116.50376      102.93857629        1.64480722
      116.60345      103.71538211        1.58487904
      116.70314      109.51536154        1.57950619
      116.80284      117.88583744        1.94773031
      116.90253      118.00506249        1.75297476
      117.00222      124.85453626        1.78929913
      117.10192      127.59101073        1.85744176
      117.20161      133.04672377        1.92019448
      117.30131      137.46824740        2.33597548
      117.40100      140.41318887        1.98498587
      117.50069      148.45724994        1.93905571
      117.60039      148.95782817        1.85884180
      117.70008      156.03454768        1.84353979
      117.79977      157.62152327        2.27065064
      117.89947      162.39543235        2.00394782
      117.99916      166.03258535        2.05068831
      118.09885      165.25665313        2.08419366
      118.19855      166.58297000        2.19180261
      118.29824      174.40532442        2.45923033
      118.39793      172.72287333        2.22186399
      118.49763      175.31104831        2.11246638
      118.59732      178.73527896        2.05961092
      118.69701      177.68255969        2.13917565
      118.79671      179.15150784        2.31946126
      118.89640      176.04306482        2.14348404
      118.99609      175.08238122        2.13526867
      119.09579      177.83898968        2.17730556
      119.19548      177.82277037        2.37894813
      119.29517      174.18250691        2.44580777
      119.39487      170.02823084        2.22105040
      119.49456      170.13972621        2.09373684
      119.59425      163.98298811        1.99579160
      119.69395      162.40659610        2.09532201
      119.79364      154.09008043        2.06205357
      119.89333      152.34193315        1.98422129
      119.99303      150.63777027        1.92632556
      120.09272      146.60746468        1.94341920
      120.19241      141.05484234        2.14225918
      120.29211      136.77774875        2.08770835
      120.39180      133.89212141        1.97044306
      120.49149      130.60774903        1.80978649
      120.59119      127.14384093        1.73293590
      120.69088      122.28752500        1.82922936
      120.79057      119.45253700        1.76891485
      120.89027      118.27314406        1.72799604
      120.98996      121.20321991        1.73600420
      121.08966      121.53056477        1.75138033
      121.18935      116.21622424        1.96278625
      121.28904      115.16060162        1.90425072
      121.38874      113.74747891        1.78957158
      121.48843      118.97587303        1.72899243
      121.58812      114.75570408        1.61927328
      121.68782      113.04621904        1.78036175
      121.78751      116.17834931        1.72004361
      121.88720      114.93761904        1.68888710
      121.98690      114.25907712        1.69647095
      122.08659      114.25745968        1.73043207
      122.18628      116.45005703        2.02672865
      122.28598      110.16298676        1.85334245
      122.38567      110.01450442        1.77380371
      122.48536      108.54659436        1.66658271
      122.58506      113.64779067        1.61538197
      122.68475      109.70743898        1.79825741
      122.78444      107.55258740        1.67641910
      122.88414      108.49076374        1.66947739
      122.98383      106.72025206        1.68962110
      123.08352      102.11603260        1.63837449
      123.18322      103.51363342        1.92398958
      123.28291      103.77084110        1.75079981
      123.38260       99.48487030        1.65464029
      123.48230      101.82514957        1.61354420
      123.58199       97.14336081        1.47281547
      123.68168       97.04391971        1.67976888
      123.78138       90.99123931        1.46716235
      123.88107       91.76725708        1.43937793
      123.98076       91.26827083        1.46198760
      124.08046       89.37073496        1.43137172
      124.18015       88.71703125        1.61414147
      124.27984       87.53437894        1.43643410
      124.37954       83.22402537        1.32147098
      124.47923       83.68452764        1.29367538
      124.57893       80.26543060        1.34966693
