        5.04651       65.50064009        2.76167878
        5.14621       59.35527078        2.53309513
        5.24590       54.95614848        2.40209270
        5.34559       54.90039378        2.20199239
        5.44529       55.46245176        2.40784666
        5.54498       56.10480294        2.03716871
        5.64467       55.23464644        2.00358085
        5.74437       57.30841642        1.84238116
        5.84406       54.08983658        1.81116616
        5.94375       55.50281015        1.83230195
        6.04345       55.22244146        1.77590467
        6.14314       54.80354795        1.61983723
        6.24283       51.50702576        1.62201406
        6.34253       52.78766439        1.56625217
        6.44222       54.34190528        1.67340146
        6.54191       54.37232513        1.58573604
        6.64161       54.14262062        1.49904005
        6.74130       51.32868281        1.46531605
        6.84099       52.57597643        1.47234027
        6.94069       53.68871870        1.51030233
        7.04038       51.82611261        1.36963202
        7.14007       52.66448829        1.37784376
        7.23977       54.18745795        1.37326221
        7.33946       50.41161286        1.34464962
        7.43915       52.78653295        1.35811771
        7.53885       50.53319418        1.30419323
        7.63854       53.69988708        1.28512529
        7.73823       54.83205230        1.34846929
        7.83793       53.21961453        1.28552638
        7.93762       51.18813495        1.31505219
        8.03732       53.63103027        1.20729132
        8.13701       54.18384974        1.20804346
        8.23670       55.01652866        1.23450328
        8.33640       53.91730457        1.22239677
        8.43609       52.77321700        1.26428281
        8.53578       53.50441101        1.18576617
        8.63548       54.15448622        1.17926350
        8.73517       53.91371480        1.15420321
        8.83486       51.87720798        1.13487007
        8.93456       54.22482608        1.15440052
        9.03425       51.99639036        1.09724251
        9.13394       55.04652144        1.13121322
        9.23364       53.73229253        1.13389398
        9.33333       54.43893750        1.16459216
        9.43302       54.06178315        1.16096740
        9.53272       53.26792281        1.11344586
        9.63241       51.85563529        1.12958204
        9.73210       54.91261844        1.16019560
        9.83180       53.95089841        1.19824196
        9.93149       52.40900422        1.17247798
       10.03118       52.43550870        1.12843413
       10.13088       55.98965925        1.13825201
       10.23057       56.79376424        1.20054458
       10.33026       56.47672292        1.23748342
       10.42996       54.27358836        1.19639241
       10.52965       55.21852432        1.16873156
       10.62934       55.50820228        1.17462044
       10.72904       56.48470646        1.20247272
       10.82873       56.10978796        1.19242030
       10.92842       56.96425380        1.22164091
       11.02812       57.44787607        1.16882074
       11.12781       56.76509099        1.20350084
       11.22750       56.53675616        1.21303423
       11.32720       56.13661731        1.24122851
       11.42689       57.70230241        1.21482515
       11.52658       56.17353972        1.18427569
       11.62628       58.76898486        1.22458113
       11.72597       59.59660102        1.25940256
       11.82567       62.22312837        1.32276248
       11.92536       59.79471000        1.21336688
       12.02505       61.45594795        1.23590598
       12.12475       62.60391651        1.24631121
       12.22444       64.84132290        1.34505587
       12.32413       70.56258088        1.42475157
       12.42383       73.45742244        1.37980483
       12.52352       82.39340163        1.45252835
       12.62321       91.21527918        1.57180862
       12.72291      104.69128029        1.63883903
       12.82260      112.33974881        1.84515211
       12.92229      122.27226644        1.74818299
       13.02199      147.91792962        1.90823908
       13.12168      177.28563645        2.12621242
       13.22137      213.07332348        2.40784028
       13.32107      247.96295601        2.68247515
       13.42076      285.48897440        2.77232278
       13.52045      317.20312414        2.95903815
       13.62015      340.50570374        2.97313820
       13.71984      332.52041989        3.06215583
       13.81953      317.00569690        3.04107535
       13.91923      285.04358545        2.70854875
       14.01892      227.35580085        2.35393736
       14.11861      180.56748178        2.18814080
       14.21831      144.60785572        1.95956205
       14.31800      109.91658956        1.79760411
       14.41769       92.29246513        1.58614345
       14.51739       76.35658610        1.40718166
       14.61708       65.01254877        1.30142735
       14.71677       58.92519649        1.25906683
       14.81647       55.83019269        1.28377359
       14.91616       53.35732935        1.15405777
       15.01585       52.26074666        1.16268978
       15.11555       52.04363318        1.17371233
       15.21524       49.73381481        1.18244555
       15.31493       48.83029609        1.19987176
       15.41463       49.32349484        1.16762078
       15.51432       49.71212334        1.13590657
       15.61402       51.09413107        1.18080583
       15.71371       50.05636044        1.16068222
       15.81340       48.30304865        1.18604120
       15.91310       51.21853350        1.18681595
       16.01279       49.33900390        1.11524570
       16.11248       48.77390087        1.13859455
       16.21218       50.39746006        1.18953170
       16.31187       52.39256364        1.21589939
       16.41156       49.95973898        1.16512534
       16.51126       49.72936149        1.18208126
       16.61095       50.40647491        1.14755728
       16.71064       51.85359310        1.20077279
       16.81034       52.57521728        1.21278906
       16.91003       53.19653728        1.18477795
       17.00972       56.78513712        1.17526589
       17.10942       57.93177545        1.25470918
       17.20911       62.32572594        1.31310245
       17.30880       65.30395136        1.35589719
       17.40850       70.52634359        1.40896655
       17.50819       73.89403177        1.40053633
       17.60788       74.45923339        1.44954924
       17.70758       75.45571397        1.46527905
       17.80727       76.51584921        1.49380987
       17.90696       72.26113143        1.35709494
       18.00666       68.93997898        1.34866873
       18.10635       61.79243574        1.24165705
       18.20604       63.63533809        1.38239679
       18.30574       56.89616679        1.24551379
       18.40543       57.59775508        1.22219859
       18.50512       53.70421960        1.21724790
       18.60482       55.32945789        1.21622155
       18.70451       51.37313955        1.23827929
       18.80420       54.01033695        1.19287104
       18.90390       51.28576689        1.14987535
       19.00359       51.63436670        1.12363080
       19.10328       50.07646377        1.17065287
       19.20298       49.66048422        1.20203778
       19.30267       48.08979188        1.13587660
       19.40237       50.03110485        1.14554242
       19.50206       46.98998300        1.13797114
       19.60175       46.16977212        1.11531521
       19.70145       49.11906005        1.20641238
       19.80114       47.14102588        1.12085616
       19.90083       47.88093768        1.09147199
       20.00053       47.51784924        1.10660466
       20.10022       47.66189937        1.11651770
       20.19991       50.03712875        1.22316591
       20.29961       49.19165465        1.14908886
       20.39930       50.16482226        1.19549499
       20.49899       50.33756936        1.17675380
       20.59869       53.09474138        1.23076798
       20.69838       53.67033638        1.28307850
       20.79807       54.15791134        1.22936747
       20.89777       56.00815329        1.22198736
       20.99746       57.82651343        1.25409147
       21.09715       55.97863242        1.29959632
       21.19685       58.27883512        1.31922355
       21.29654       58.88028713        1.29354595
       21.39623       59.43518984        1.29972051
       21.49593       55.07424716        1.23305852
       21.59562       55.71518608        1.27010608
       21.69531       54.91982897        1.31157822
       21.79501       51.67305140        1.16369334
       21.89470       49.03302140        1.10796619
       21.99439       48.05922476        1.14337615
       22.09409       48.27134037        1.14874463
       22.19378       47.41627333        1.20906651
       22.29347       46.58477772        1.11610761
       22.39317       45.64918512        1.13342742
       22.49286       45.74527907        1.13371669
       22.59255       49.42955042        1.19249841
       22.69225       46.18045855        1.21451430
       22.79194       47.60004828        1.10744022
       22.89163       46.05257069        1.06793399
       22.99133       47.62872012        1.11623463
       23.09102       46.90329645        1.15036573
       23.19072       47.12383551        1.15579581
       23.29041       46.48752914        1.13364741
       23.39010       50.14394633        1.18987407
       23.48980       46.43661833        1.14905080
       23.58949       46.53854231        1.16574106
       23.68918       46.49348566        1.22525576
       23.78888       46.16541476        1.08807542
       23.88857       46.69956716        1.10869342
       23.98826       47.63889550        1.14483909
       24.08796       43.17906873        1.06853009
       24.18765       45.03626331        1.16937777
       24.28734       46.00941099        1.12536529
       24.38704       45.96213179        1.14358412
       24.48673       44.08399774        1.11589646
       24.58642       48.07216658        1.20400593
       24.68612       44.93892653        1.16244124
       24.78581       46.01256106        1.08433958
       24.88550       47.56725381        1.10211733
       24.98520       45.71287229        1.12031284
       25.08489       46.07160748        1.14717163
       25.18458       48.57996079        1.20283775
       25.28428       47.40080528        1.14511635
       25.38397       49.94803799        1.16987690
       25.48366       51.28423937        1.19256940
       25.58336       55.04555156        1.28795747
       25.68305       58.49034038        1.30225697
       25.78274       69.13010943        1.33661965
       25.88244       82.61023809        1.49851309
       25.98213      103.49730646        1.69178386
       26.08182      134.86978290        1.98337139
       26.18152      155.92131463        2.18482056
       26.28121      185.32638337        2.25443423
       26.38090      202.00303121        2.37423314
       26.48060      195.25695290        2.39798919
       26.58029      182.62354012        2.41874313
       26.67998      162.23453902        2.15243115
       26.77968      130.39543719        1.90560821
       26.87937      100.38559213        1.64716712
       26.97907       82.30061106        1.47860330
       27.07876       73.56483481        1.50505335
       27.17845       70.91353122        1.41208639
       27.27815       77.43736051        1.44135494
       27.37784       82.47436991        1.54568594
       27.47753       86.39309480        1.55880743
       27.57723       86.03320008        1.62950528
       27.67692       86.17780617        1.59189586
       27.77661       81.49618229        1.47738383
       27.87631       72.37078622        1.36875477
       27.97600       64.84935435        1.32463917
       28.07569       58.73887794        1.33407252
       28.17539       56.14616998        1.24856557
       28.27508       50.81474648        1.18812483
       28.37477       52.10312119        1.23178596
       28.47447       51.93325626        1.22016449
       28.57416       53.89830723        1.34396299
       28.67385       52.78039459        1.18318475
       28.77355       56.00054667        1.19688012
       28.87324       58.49943734        1.25597661
       28.97293       59.16473335        1.26607160
       29.07263       59.68606512        1.38617307
       29.17232       59.99597647        1.26829816
       29.27201       59.55357890        1.28694462
       29.37171       56.08849353        1.28465140
       29.47140       54.38018642        1.25027099
       29.57109       51.44702652        1.28941110
       29.67079       47.88248389        1.13233210
       29.77048       49.33954800        1.15215774
       29.87017       47.73742582        1.11099086
       29.96987       49.61726841        1.18769873
       30.06956       48.93299692        1.21682012
       30.16925       49.28075931        1.14978899
       30.26895       49.40512859        1.15564182
       30.36864       50.65809754        1.18937970
       30.46833       51.91339214        1.21627806
       30.56803       51.67149937        1.28178098
       30.66772       55.24296836        1.23347015
       30.76742       60.91053464        1.26950961
       30.86711       62.03446438        1.30673588
       30.96680       63.21121139        1.32674206
       31.06650       66.03705381        1.42205662
       31.16619       62.49276169        1.30054127
       31.26588       60.04256832        1.26703173
       31.36558       58.73385464        1.26950546
       31.46527       62.10794531        1.35851075
       31.56496       60.71298949        1.36466685
       31.66466       66.86687551        1.33961400
       31.76435       73.74127397        1.40562785
       31.86404       81.85996423        1.46184996
       31.96374       88.30070113        1.55375781
       32.06343       88.42500632        1.60900633
       32.16312       87.86221544        1.50728260
       32.26282       79.42987019        1.46777272
       32.36251       75.91377398        1.49223072
       32.46220       69.35360583        1.45162275
       32.56190       63.20499174        1.41011086
       32.66159       60.52844141        1.31034984
       32.76128       56.13713051        1.23342999
       32.86098       54.31050538        1.23134077
       32.96067       53.00476102        1.23163396
       33.06036       53.05537270        1.25470941
       33.16006       54.02509139        1.19242320
       33.25975       55.03512263        1.24266133
       33.35944       55.35641502        1.25305170
       33.45914       56.42221558        1.31322456
       33.55883       57.43704434        1.32812883
       33.65852       61.34535323        1.28006938
       33.75822       67.34663399        1.33912739
       33.85791       75.72068576        1.42604295
       33.95760       79.89925170        1.50819117
       34.05730       88.36449534        1.57091787
       34.15699      101.50491458        1.65736041
       34.25668      113.20412339        1.74439520
       34.35638      136.53668978        1.96592772
       34.45607      174.20002076        2.34000621
       34.55577      217.95360727        2.49538749
       34.65546      293.57830594        2.78037603
       34.75515      373.68217351        3.19939986
       34.85485      442.72590584        3.45882784
       34.95454      468.06677549        3.66912561
       35.05423      443.34958156        3.69122416
       35.15393      388.64782206        3.24319558
       35.25362      300.80155753        2.89426264
       35.35331      223.72319038        2.55890288
       35.45301      157.96860319        2.24190767
       35.55270      118.72320951        1.89181520
       35.65239       91.53928207        1.60392321
       35.75209       79.73109902        1.48582593
       35.85178       78.51507894        1.47259626
       35.95147       73.31304977        1.45629994
       36.05117       69.25182710        1.38611325
       36.15086       62.82203440        1.26916327
       36.25055       61.03591381        1.30693577
       36.35025       58.44889042        1.30388349
       36.44994       53.85364078        1.27640134
       36.54963       52.89367054        1.21428623
       36.64933       53.70948938        1.20539309
       36.74902       52.64851459        1.20585508
       36.84871       50.99504926        1.17813885
       36.94841       52.35871193        1.29107163
       37.04810       52.18079091        1.13645696
       37.14779       52.78711155        1.16650434
       37.24749       51.41556466        1.18321776
       37.34718       50.64177441        1.20420280
       37.44687       50.52926716        1.29210931
       37.54657       48.99879190        1.16154660
       37.64626       49.77687764        1.16627577
       37.74595       47.39825552        1.12018098
       37.84565       48.98542877        1.20500125
       37.94534       49.12133409        1.22929852
       38.04503       48.07489655        1.09913296
       38.14473       49.72763880        1.12888713
       38.24442       47.56311341        1.12413713
       38.34412       51.87166091        1.22753354
       38.44381       47.51546898        1.27017089
       38.54350       49.79333050        1.15915995
       38.64320       50.57457132        1.16470912
       38.74289       54.53480589        1.22543995
       38.84258       55.27327847        1.23672436
       38.94228       57.09493297        1.31844653
       39.04197       60.13638748        1.22023102
       39.14166       67.14001580        1.34154082
       39.24136       72.42174314        1.38978706
       39.34105       69.89472588        1.41279210
       39.44074       71.20946135        1.55551527
       39.54044       71.53905771        1.39406943
       39.64013       70.06255787        1.37533132
       39.73982       66.00254729        1.34011882
       39.83952       63.60457940        1.30656561
       39.93921       59.18555708        1.33618983
       40.03890       56.41760903        1.19404649
       40.13860       57.45979006        1.20351437
       40.23829       56.54100559        1.23605010
       40.33798       55.15376124        1.25878663
       40.43768       56.36650295        1.33149143
       40.53737       56.42204200        1.23640657
       40.63706       57.32978148        1.27252104
       40.73676       58.66580446        1.28527898
       40.83645       60.91056894        1.32067427
       40.93614       62.88748145        1.36450889
       41.03584       66.87634827        1.32436155
       41.13553       74.45314459        1.39920437
       41.23522       85.54988397        1.53659572
       41.33492      104.77816638        1.78079337
       41.43461      121.98928574        1.98347859
       41.53430      147.45546109        2.04307357
       41.63400      173.05515876        2.26255615
       41.73369      188.90241000        2.31271566
       41.83338      199.70355362        2.44199318
       41.93308      195.86232582        2.39645597
       42.03277      196.95173409        2.19633188
       42.13247      219.77492028        2.43937523
       42.23216      260.64160669        2.66240917
       42.33185      328.91111575        3.21315028
       42.43155      411.09772259        3.54315276
       42.53124      516.17653913        3.85113063
       42.63093      608.62249798        4.19726300
       42.73063      655.31908694        4.37942918
       42.83032      625.44253420        4.35142885
       42.93001      558.80579015        3.95373949
       43.02971      436.56096225        3.29395387
       43.12940      306.29228409        2.80882882
       43.22909      211.47196300        2.44999854
       43.32879      149.16416648        2.16622403
       43.42848      111.47524025        1.83106314
       43.52817       82.04689338        1.50254529
       43.62787       71.85745485        1.40157878
       43.72756       69.11837674        1.40731072
       43.82725       65.56033104        1.43114861
       43.92695       62.16196072        1.26362308
       44.02664       58.85815215        1.22359954
       44.12633       58.30605965        1.26323302
       44.22603       60.18473402        1.33595937
       44.32572       57.79213341        1.37966242
       44.42541       57.02339503        1.30841022
       44.52511       56.97799360        1.27270851
       44.62480       56.98045774        1.29072751
       44.72449       58.89743137        1.27176576
       44.82419       60.99945581        1.45238331
       44.92388       65.57112812        1.25602166
       45.02357       73.07179857        1.33700205
       45.12327       82.93836267        1.46741523
       45.22296       93.95894569        1.60317597
       45.32265      106.83597691        1.89119845
       45.42235      129.85926398        1.89916169
       45.52204      163.72124407        2.11235055
       45.62174      209.93816887        2.43804231
       45.72143      259.47386063        2.71384009
       45.82112      292.19030820        3.15543944
       45.92082      316.40189403        2.78980153
       46.02051      301.40678840        2.77970133
       46.12020      268.68703594        2.63045784
       46.21990      211.70807108        2.44941173
       46.31959      171.25009569        2.37634814
       46.41928      136.34713431        1.95685306
       46.51898       98.47888008        1.67087408
       46.61867       78.60328991        1.48484718
       46.71836       67.24777620        1.40859678
       46.81806       63.65744425        1.42118644
       46.91775       59.37103977        1.19633761
       47.01744       57.00703999        1.20019546
       47.11714       58.55317902        1.24420909
       47.21683       62.06618811        1.31881229
       47.31652       67.64587665        1.50220423
       47.41622       74.27686682        1.48353781
       47.51591       84.71751455        1.58750004
       47.61560      104.25312582        1.74698271
       47.71530      126.79833689        1.94833804
       47.81499      156.24695689        2.21883123
       47.91468      185.80922093        2.11830809
       48.01438      210.96793298        2.25970621
       48.11407      227.30837479        2.43451074
       48.21376      216.02056668        2.47692673
       48.31346      195.14533427        2.43653963
       48.41315      164.06283238        2.08057802
       48.51284      132.09904204        1.92746182
       48.61254      100.72035607        1.67490645
       48.71223       79.10837595        1.51062791
       48.81192       68.73599203        1.40460482
       48.91162       58.72102172        1.16362190
       49.01131       56.45726716        1.18102289
       49.11100       54.08983567        1.19761562
       49.21070       52.53845740        1.23915219
       49.31039       49.66323141        1.23981162
       49.41009       48.58012926        1.15835255
       49.50978       50.23008106        1.20230231
       49.60947       48.75114435        1.19307872
       49.70917       47.57888463        1.22230091
       49.80886       47.98173091        1.19464400
       49.90855       49.83988490        1.10918821
       50.00825       51.29868191        1.14913123
       50.10794       52.42133111        1.18812125
       50.20763       51.86689240        1.23470578
       50.30733       50.66123088        1.27816482
       50.40702       52.90963642        1.22502627
       50.50671       53.64685501        1.23718581
       50.60641       54.95881501        1.25405409
       50.70610       57.25405264        1.31715103
       50.80579       54.97707572        1.27355953
       50.90549       55.56208444        1.15433843
       51.00518       56.82664448        1.17780304
       51.10487       54.73122700        1.19473956
       51.20457       53.10333111        1.25277738
       51.30426       57.11770713        1.29269106
       51.40395       57.17245071        1.23986250
       51.50365       56.93981384        1.25145895
       51.60334       58.37879709        1.29226474
       51.70303       56.75942639        1.35306844
       51.80273       60.17460428        1.27807651
       51.90242       60.30768239        1.19544467
       52.00211       60.38263260        1.20184718
       52.10181       63.05954959        1.26719087
       52.20150       63.44372613        1.39978630
       52.30119       61.78542965        1.33059597
       52.40089       64.47691593        1.33811103
       52.50058       61.07163170        1.32673988
       52.60027       60.17921677        1.33495714
       52.69997       58.37309188        1.44078057
       52.79966       56.76249146        1.19441355
       52.89935       60.66867004        1.19162453
       52.99905       66.29031044        1.26615507
       53.09874       74.27884380        1.38373017
       53.19844       85.92969276        1.70475620
       53.29813      103.17495950        1.66076767
       53.39782      122.12667197        1.87004926
       53.49752      143.21799597        2.03542536
       53.59721      161.73463414        2.16242904
       53.69690      170.53301361        2.43693162
       53.79660      175.19111371        2.06929553
       53.89629      171.00744398        2.02209587
       53.99598      152.29496377        1.95374339
       54.09568      133.74893652        1.91096903
       54.19537      120.00306858        1.97344985
       54.29506      103.39572408        1.68212210
       54.39476       97.59778688        1.64681668
       54.49445       88.77900839        1.57143042
       54.59414       83.53786803        1.54735756
       54.69384       83.04979638        1.64591533
       54.79353       80.37057901        1.38837431
       54.89322       77.70334246        1.36012620
       54.99292       74.12331194        1.36718435
       55.09261       70.93618780        1.39077360
       55.19230       65.43612457        1.43423075
       55.29200       64.15282356        1.32172471
       55.39169       60.15300527        1.32043812
       55.49138       58.41697854        1.29636227
       55.59108       54.50690678        1.29222086
       55.69077       55.54562031        1.33879593
       55.79046       54.08297354        1.15491083
       55.89016       52.95752069        1.14005541
       55.98985       55.18067979        1.17129057
       56.08954       56.35718333        1.22276576
       56.18924       61.28576062        1.37632523
       56.28893       68.20845322        1.32914858
       56.38862       73.84702272        1.43071212
       56.48832       83.65953144        1.54934560
       56.58801       97.95324213        1.72561817
       56.68770      106.52692443        1.85771908
       56.78740      110.31107561        1.61803330
       56.88709      115.16866089        1.67006530
       56.98679      113.32691999        1.65813125
       57.08648      104.65989864        1.68883304
       57.18617       94.34255901        1.65983355
       57.28587       85.51861678        1.47622029
       57.38556       76.63743456        1.48728728
       57.48525       67.81753928        1.42561406
       57.58495       60.99531202        1.38271218
       57.68464       56.90531323        1.34702915
       57.78433       56.26901953        1.17175747
       57.88403       52.72267411        1.14731174
       57.98372       53.99196820        1.17958111
       58.08341       53.32886243        1.26751523
       58.18311       50.20170798        1.25785697
       58.28280       53.21716297        1.21995464
       58.38249       49.94253571        1.23475342
       58.48219       50.90411484        1.27354471
       58.58188       50.30987548        1.27990909
       58.68157       52.40064245        1.28009190
       58.78127       53.38734327        1.13023180
       58.88096       54.65051636        1.12670220
       58.98065       55.45749133        1.17824038
       59.08035       56.75520716        1.27192412
       59.18004       58.08747396        1.30536069
       59.27973       60.57097037        1.25774427
       59.37943       62.84455407        1.32345420
       59.47912       68.64905524        1.44018925
       59.57881       73.08136855        1.55686664
       59.67851       76.94343495        1.48948345
       59.77820       81.53220829        1.40963748
       59.87789       90.10556441        1.47695737
       59.97759       93.92514452        1.57750282
       60.07728      105.08287406        1.80752908
       60.17697      104.51870735        1.71719123
       60.27667      102.69834859        1.65479284
       60.37636      105.47770022        1.70973251
       60.47605      104.60589067        1.77623983
       60.57575       98.92152427        1.89272490
       60.67544       91.51899139        1.56374764
       60.77514       83.75945298        1.42191692
       60.87483       74.69045765        1.31635888
       60.97452       71.93720800        1.36091417
       61.07422       66.66228036        1.47146933
       61.17391       66.54784629        1.27354650
       61.27360       65.42079140        1.30750372
       61.37330       66.12895241        1.36334844
       61.47299       66.68189162        1.42923071
       61.57268       66.30380521        1.62065344
       61.67238       68.02978776        1.33803123
       61.77207       69.27792713        1.31510175
       61.87176       69.20775016        1.29978732
       61.97146       68.15026297        1.33905786
       62.07115       66.55382190        1.49862065
       62.17084       64.46682895        1.29213249
       62.27054       63.41941123        1.33624895
       62.37023       59.36957600        1.34419377
       62.46992       58.60312487        1.38122407
       62.56962       60.22060075        1.57267339
       62.66931       58.28331926        1.24630240
       62.76900       60.36811619        1.23635344
       62.86870       60.40824798        1.20973217
       62.96839       67.40665764        1.31890539
       63.06808       74.24911059        1.54072504
       63.16778       84.85465274        1.46254264
       63.26747      101.03843865        1.65234433
       63.36716      116.46240322        1.84188065
       63.46686      138.81320472        2.07268752
       63.56655      148.92871312        2.28147134
       63.66624      174.34482648        2.09979713
       63.76594      194.51108400        2.15569095
       63.86563      205.62465445        2.21016140
       63.96532      208.94230051        2.33136749
       64.06502      199.24163095        2.43803185
       64.16471      179.85967934        2.14122666
       64.26440      155.76742390        2.07286563
       64.36410      131.20061877        1.93946414
       64.46379      112.02845073        1.89438909
       64.56349       94.27088118        1.76787529
       64.66318       82.68292464        1.44879132
       64.76287       69.93565820        1.31562898
       64.86257       60.49434898        1.22147666
       64.96226       59.96621035        1.27391625
       65.06195       58.16863124        1.35665657
       65.16165       52.93571050        1.16727082
       65.26134       54.17259842        1.20853124
       65.36103       51.27371188        1.22674708
       65.46073       54.73041514        1.30922574
       65.56042       52.30413874        1.33663884
       65.66011       53.78649573        1.18195461
       65.75981       57.72146272        1.21234485
       65.85950       59.51866273        1.22328930
       65.95919       60.45171625        1.29055605
       66.05889       64.44407212        1.37843367
       66.15858       70.33949097        1.36966366
       66.25827       78.03737414        1.49228143
       66.35797       93.57511796        1.70304029
       66.45766      106.35163135        1.92970028
       66.55735      122.42515588        2.07065731
       66.65705      135.88114845        1.93559052
       66.75674      151.61922096        1.99307457
       66.85643      161.59062509        2.03449731
       66.95613      170.87634085        2.17571171
       67.05582      173.76946181        2.21059562
       67.15551      174.84201529        2.11019620
       67.25521      156.18705528        2.09222975
       67.35490      144.93413600        2.12126900
       67.45459      126.35533193        2.08796973
       67.55429      110.01520745        1.86606866
       67.65398       94.29615475        1.54811982
       67.75367       80.50823914        1.41836207
       67.85337       71.96891956        1.35728274
       67.95306       75.74010294        1.48915571
       68.05275       78.40996899        1.43484048
       68.15245       85.75845149        1.48796740
       68.25214       95.87015783        1.67027537
       68.35184      105.44182866        1.82599064
       68.45153      113.65647467        2.08740089
       68.55122      121.07507691        1.85628701
       68.65092      128.97674493        1.78607179
       68.75061      130.51861502        1.81519750
       68.85030      133.31252652        1.86995876
       68.95000      129.61636797        2.09023524
       69.04969      116.47758620        1.67269368
       69.14938      105.01688140        1.63272689
       69.24908       92.23057313        1.63355133
       69.34877       78.07738427        1.55394181
       69.44846       73.49842070        1.74871197
       69.54816       67.15972285        1.30315636
       69.64785       56.38158245        1.17687260
       69.74754       56.02572220        1.18500583
       69.84724       51.77739359        1.16876044
       69.94693       51.15175632        1.31101484
       70.04662       48.38462401        1.04844261
       70.14632       47.92353985        1.08501390
       70.24601       47.61743319        1.15803119
       70.34570       48.10985071        1.23176056
       70.44540       49.94399920        1.47880669
       70.54509       48.01071360        1.13481080
       70.64478       49.81249407        1.15433798
       70.74448       49.93589070        1.17409109
       70.84417       48.48878991        1.20049097
       70.94386       49.77263597        1.33519470
       71.04356       53.04872870        1.14078405
       71.14325       51.94333365        1.17301470
       71.24294       54.40521188        1.26321920
       71.34264       51.74500176        1.30616701
       71.44233       50.66976130        1.44226374
       71.54202       54.08252913        1.21322699
       71.64172       55.73130885        1.19808678
       71.74141       54.18230862        1.15981966
       71.84110       50.33041155        1.15697626
       71.94080       53.78844840        1.30349308
       72.04049       51.19868069        1.07629246
       72.14019       53.47769174        1.14617242
       72.23988       53.78888303        1.20275038
       72.33957       52.20053616        1.32342111
       72.43927       56.29249743        1.51306197
       72.53896       52.20185251        1.16807104
       72.63865       51.48505033        1.13384193
       72.73835       55.48972407        1.15138694
       72.83804       59.86681127        1.26305932
       72.93773       61.93149962        1.36468471
       73.03743       62.74141629        1.19231446
       73.13712       66.13025615        1.29105015
       73.23681       68.63429471        1.38192732
       73.33651       68.63053886        1.52056530
       73.43620       69.69847234        1.65981491
       73.53589       68.94319446        1.33164524
       73.63559       69.55338730        1.31655029
       73.73528       68.43737202        1.29996057
       73.83497       64.00202733        1.33255755
       73.93467       64.84156683        1.41240172
       74.03436       59.96673550        1.20186031
       74.13405       60.24389645        1.25586247
       74.23375       57.02213604        1.27255691
       74.33344       58.07715816        1.41386337
       74.43313       57.20470948        1.45600543
       74.53283       55.76236151        1.22132169
       74.63252       55.14421108        1.20570367
       74.73221       56.52342699        1.21477248
       74.83191       60.19868213        1.33001772
       74.93160       63.11916568        1.37736301
       75.03129       65.94434682        1.25171089
       75.13099       73.93925893        1.37319981
       75.23068       81.91744918        1.50798787
       75.33037       96.49439727        1.79985276
       75.43007      106.00381743        1.91419265
       75.52976      118.62552151        1.75946992
       75.62945      137.31891337        1.89243168
       75.72915      155.19409317        2.00493759
       75.82884      163.24731995        2.21441541
       75.92854      165.60482307        2.09379640
       76.02823      169.86655872        1.98899562
       76.12792      174.38515493        2.10663162
       76.22762      168.90655593        2.18696986
       76.32731      157.63310334        2.38513374
       76.42700      151.77454034        2.20846007
       76.52670      141.21934174        1.96458798
       76.62639      123.55624471        1.81334184
       76.72608      108.84159945        1.67292856
       76.82578      102.25989650        1.86811520
       76.92547       94.33088909        1.43676782
       77.02516      100.61039624        1.53825781
       77.12486      107.34457380        1.66949726
       77.22455      119.63296470        1.87740110
       77.32424      133.18344154        2.43465147
       77.42394      138.11533216        1.97996354
       77.52363      148.35535626        1.98362578
       77.62332      158.64634292        2.04256110
       77.72302      170.34188778        2.12209630
       77.82271      175.99002717        2.53005551
       77.92240      175.77314793        1.93613745
       78.02210      178.83340057        2.10750078
       78.12179      164.09327648        2.15507978
       78.22148      157.11874737        2.22947988
       78.32118      143.74929322        2.47339541
       78.42087      126.03358671        1.82166101
       78.52056      109.58960225        1.75325277
       78.62026       96.24320608        1.62946227
       78.71995       80.72225298        1.49657324
       78.81964       72.70424840        1.58609314
       78.91934       68.45790771        1.19245860
       79.01903       60.55956686        1.22934781
       79.11872       59.18342794        1.26476413
       79.21842       58.34424030        1.33960621
       79.31811       56.16041523        1.48035129
       79.41780       55.48353092        1.19358511
       79.51750       57.09038920        1.23031964
       79.61719       58.15345580        1.24542223
       79.71689       58.84291896        1.30071700
       79.81658       58.64186269        1.37645203
       79.91627       61.40139783        1.19400344
       80.01597       61.02301207        1.22345808
       80.11566       62.83643637        1.29790493
       80.21535       61.92600669        1.37726710
       80.31505       67.62763053        1.71129484
       80.41474       65.79613503        1.29697346
       80.51443       64.89996761        1.28242700
       80.61413       67.09136209        1.34723578
       80.71382       70.47734671        1.42855233
       80.81351       76.07599319        1.66806460
       80.91321       75.28305343        1.22354222
       81.01290       85.45862092        1.40760336
       81.11259       93.73080651        1.59127501
       81.21229      108.11294456        1.84903476
       81.31198      119.77990479        2.17144617
       81.41167      135.31466314        1.80750880
       81.51137      165.31484116        2.05672527
       81.61106      191.70985351        2.31413724
       81.71075      210.22883688        2.50909559
       81.81045      229.05949211        2.77594568
       81.91014      260.16640651        2.27662762
       82.00983      299.54397750        2.61392867
       82.10953      325.79973180        3.05184914
       82.20922      349.05913807        3.51555116
       82.30891      356.73116101        3.72730012
       82.40861      371.00047637        3.09249416
       82.50830      368.28309010        3.07289510
       82.60799      363.66645974        3.28882926
       82.70769      351.70916260        3.51835879
       82.80738      346.35906094        3.33540514
       82.90707      322.48744112        2.61145626
       83.00677      298.33990639        2.67446064
       83.10646      282.18541966        3.05933185
       83.20615      254.83278033        3.23360184
       83.30585      229.00241602        2.90193389
       83.40554      203.50031806        2.27299258
       83.50524      173.34827350        2.04553048
       83.60493      139.68535090        2.02113533
       83.70462      119.37737153        2.10594931
       83.80432      111.81059363        1.78110504
       83.90401       91.16958827        1.34858866
       84.00370       79.19377899        1.31075518
       84.10340       69.33876024        1.46539244
       84.20309       66.49819092        1.74221737
       84.30278       63.52524415        1.38482892
       84.40248       64.13293352        1.22813335
       84.50217       61.44188901        1.17922173
       84.60186       60.43573131        1.32240749
       84.70156       63.48557879        1.77380520
       84.80125       61.17418028        1.21216654
       84.90094       62.50624892        1.10075431
       85.00064       60.62033539        1.11679148
       85.10033       64.19139079        1.36023846
       85.20002       62.83931002        2.30813617
       85.29972       63.77995218        1.22667576
       85.39941       62.85656987        1.24152608
       85.49910       64.01830540        1.21850783
       85.59880       65.35233769        1.38443566
       85.69849       62.60441242        2.43248970
       85.79818       64.64114603        1.16542166
       85.89788       63.02350579        1.12318812
       85.99757       64.61423443        1.16861784
       86.09726       66.33329004        1.35955944
       86.19696       62.47697465        2.53385744
       86.29665       66.08152937        1.23335431
       86.39634       64.70888930        1.24159895
       86.49604       64.87608578        1.22440797
       86.59573       63.73702729        1.29303498
       86.69542       59.07120431        2.60221359
       86.79512       58.83227759        1.07800691
       86.89481       57.01136562        1.04617210
       86.99451       54.22063679        1.05742458
       87.09420       55.38485585        1.19195851
       87.19389       48.30276092        2.63613722
       87.29359       53.90051068        1.12878658
       87.39328       51.91396576        1.12267858
       87.49297       50.58180701        1.07574015
       87.59267       49.43233956        1.08431482
       87.69236       50.06984891        3.26551619
       87.79205       49.85676846        1.01507368
       87.89175       51.71472587        1.02555848
       87.99144       49.91589990        1.04982950
       88.09113       49.54660120        1.11169282
       88.19083       44.86902401        5.59728456
       88.29052       49.92881008        1.12301979
       88.39021       49.48447637        1.12544611
       88.48991       50.63191442        1.09260496
       88.58960       48.04575559        1.03062296
       88.68929       64.85783962        9.28165489
       88.78899       50.00816416        1.01497578
       88.88868       48.38615647        0.97651904
       88.98837       48.82394792        1.02027033
       89.08807       46.56827630        1.02052971
       89.18776       42.15501268        7.89911322
       89.28745       48.34832338        1.05656630
       89.38715       51.60475489        1.10290669
       89.48684       52.24795882        1.08603776
       89.58653       53.63639112        1.07806916
       89.68623       53.42007749        8.72198342
       89.78592       55.52454793        1.06588387
       89.88561       62.17150349        1.10599455
       89.98531       65.37614314        1.16306586
       90.08500       75.37687829        1.29568434
       90.18469       71.57883732       10.52896770
       90.28439       82.63094855        1.38583216
       90.38408       87.44854708        1.44980257
       90.48377       96.08805233        1.49161179
       90.58347      100.74036501        1.50349446
       90.68316      100.86417068       11.71868698
       90.78286      100.77311543        1.43941060
       90.88255      103.38255325        1.41873667
       90.98224      104.66727108        1.47702300
       91.08194      103.91334594        1.51993668
       91.18163      120.46629358       13.06656273
       91.28132      104.15562071        1.56675858
       91.38102       99.96232484        1.57539810
       91.48071       92.31345506        1.47638175
       91.58040       85.39387032        1.37296091
       91.68010       88.01750395       10.54623574
       91.77979       78.97911821        1.26724174
       91.87948       69.94294196        1.17376175
       91.97918       68.77063220        1.20853776
       92.07887       63.14869167        1.20612251
       92.17856       61.63244522        9.05937312
       92.27826       62.54891877        1.23972443
       92.37795       63.59360489        1.27973539
       92.47764       60.11586907        1.18102366
       92.57734       69.50054699        1.23230795
       92.67703       63.28916577        7.63174207
       92.77672       76.90116764        1.24965483
       92.87642       81.22041772        1.25993551
       92.97611       92.18350415        1.40214409
       93.07580       97.82817667        1.64888487
       93.17550      101.28134117        3.15518358
       93.27519      102.47952576        1.55577872
       93.37488      103.30158194        1.51842414
       93.47458      105.81031098        1.55378403
       93.57427      106.90514445        1.80570688
       93.67396      109.48022070        2.46969704
       93.77366      110.60726171        1.53784923
       93.87335      111.55223742        1.47525730
       93.97304      107.32621648        1.50778251
       94.07274       97.35882346        1.86378564
       94.17243       96.91624987        2.12174455
       94.27212       92.49092635        1.54356868
       94.37182       84.02080657        1.43339715
       94.47151       81.54233145        1.35221586
       94.57121       75.97955570        1.72232227
       94.67090       70.41449895        1.67692231
       94.77059       69.70578426        1.29698330
       94.87029       65.62711999        1.14420986
       94.96998       61.65600219        1.12294913
       95.06967       62.52743639        1.30367912
       95.16937       58.84063565        1.73097577
       95.26906       60.50188752        1.35604957
       95.36875       58.04051094        1.20508461
       95.46845       59.14578257        1.16916155
       95.56814       57.63828324        1.32802121
       95.66783       57.20222195        1.48629446
       95.76753       55.56398111        1.21043672
       95.86722       54.95532929        1.02394290
       95.96691       54.38246951        1.05651576
       96.06661       54.38463162        1.35344569
       96.16630       54.84120891        1.44938101
       96.26599       53.00563350        1.27958702
       96.36569       51.32955452        1.12978184
       96.46538       52.31176208        1.10075998
       96.56507       47.43602424        1.29353917
       96.66477       44.93554456        1.22668251
       96.76446       46.80644212        1.11884701
       96.86415       47.87026063        0.98012694
       96.96385       47.64314673        1.00990561
       97.06354       49.90107946        1.39769539
       97.16323       47.60173128        1.30515931
       97.26293       51.45872173        1.27507949
       97.36262       49.33861653        1.15609826
       97.46231       51.19694659        1.08350577
       97.56201       51.82534996        1.38694711
       97.66170       51.29775767        1.23935776
       97.76139       51.26652530        1.12559773
       97.86109       51.99961678        1.02509849
       97.96078       53.51098449        1.06266113
       98.06047       54.57234754        1.49063812
       98.16017       53.53631529        1.31243545
       98.25986       55.67949365        1.27855186
       98.35956       54.29582340        1.19191718
       98.45925       56.48573408        1.13483241
       98.55894       59.69894304        1.52203400
       98.65864       56.39423415        1.26911624
       98.75833       63.39795616        1.25760764
       98.85802       63.30108181        1.17334683
       98.95772       66.81049468        1.19753466
       99.05741       68.13419774        1.67893766
       99.15710       71.21295522        1.47630258
       99.25680       74.08080622        1.45891635
       99.35649       77.21610939        1.41876029
       99.45618       82.76137026        1.36907385
       99.55588       84.85334248        1.85244520
       99.65557       88.85073100        1.56404729
       99.75526       91.31146109        1.48621977
       99.85496       87.21600405        1.38226548
       99.95465       88.84214910        1.36779830
      100.05434       88.57344962        1.94556973
      100.15404       90.86794742        1.65996442
      100.25373       90.46229513        1.63639646
      100.35342       92.20244474        1.64570406
      100.45312       91.72445391        1.49778452
      100.55281       85.63370301        1.90036180
      100.65250       84.23733410        1.53540041
      100.75220       79.49498233        1.38137107
      100.85189       76.68428246        1.29623153
      100.95158       74.09378142        1.23999361
      101.05128       75.72283251        1.78729046
      101.15097       71.64368085        1.43661237
      101.25066       73.48914625        1.43764767
      101.35036       70.58327975        1.42100647
      101.45005       72.60418269        1.35535391
      101.54974       69.89128864        1.65614160
      101.64944       73.65423422        1.38728631
      101.74913       77.82202800        1.34379370
      101.84882       81.97229361        1.34269840
      101.94852       85.94846222        1.44845141
      102.04821       84.08309878        1.72546604
      102.14791       88.75541198        1.59792407
      102.24760       89.20852165        1.58849425
      102.34729       90.58231032        1.59422314
      102.44699       91.09778811        1.62657866
      102.54668       93.06767875        1.72527603
      102.64637       94.87884197        1.55590295
      102.74607       97.35690019        1.50114885
      102.84576       97.18957552        1.47136944
      102.94545       99.01079335        1.69155308
      103.04515       94.58254291        1.74994723
      103.14484       93.62394043        1.62662401
      103.24453       88.16437152        1.55383376
      103.34423       90.15984714        1.55870938
      103.44392       87.45542688        1.66276573
      103.54361       86.54256433        1.60678532
      103.64331       85.89010931        1.45704526
      103.74300       86.91221326        1.39812038
      103.84269       83.87767864        1.34957605
      103.94239       81.51838774        1.59870796
      104.04208       78.55574186        1.51812621
      104.14177       78.21704330        1.47379614
      104.24147       79.25449630        1.48283750
      104.34116       81.41179543        1.51232849
      104.44085       82.89737330        1.73332912
      104.54055       82.35491914        1.56416704
      104.64024       80.84694875        1.45670786
      104.73993       78.12950890        1.36639165
      104.83963       76.66545549        1.30397193
      104.93932       72.18213055        1.53363897
      105.03901       72.77193884        1.45098991
      105.13871       68.65427418        1.35682837
      105.23840       68.96993077        1.35917814
      105.33809       68.19461077        1.35945811
      105.43779       65.87194506        1.55448706
      105.53748       63.96680367        1.37364974
      105.63717       59.56547782        1.21483367
      105.73687       58.45279304        1.14524397
      105.83656       55.81144644        1.09034519
      105.93626       57.92261344        1.40773441
      106.03595       54.33530926        1.23557139
      106.13564       49.65995267        1.14147867
      106.23534       51.07042190        1.17188842
      106.33503       49.97126616        1.17087437
      106.43472       50.85391601        1.39645583
      106.53442       48.47811861        1.18583247
      106.63411       47.92361750        1.07101226
      106.73380       49.31445682        1.03553288
      106.83350       47.63171342        1.00245844
      106.93319       45.73817196        1.27332763
      107.03288       49.48801962        1.17403676
      107.13258       50.20606335        1.14783193
      107.23227       53.52308618        1.20248360
      107.33196       52.00269003        1.18196489
      107.43166       52.32341195        1.42457060
      107.53135       53.54931543        1.24348676
      107.63104       55.53719796        1.15317675
      107.73074       58.23056776        1.13298770
      107.83043       59.84709431        1.13415181
      107.93012       64.03777577        1.55220191
      108.02982       63.40899625        1.35186291
      108.12951       67.81529296        1.32968918
      108.22920       64.44005065        1.27524183
      108.32890       68.52931087        1.30273129
      108.42859       69.18662882        1.66131714
      108.52828       71.58401220        1.43353765
      108.62798       73.51146878        1.31734196
      108.72767       75.27832887        1.27961426
      108.82736       74.72052701        1.30292925
      108.92706       74.83304207        1.65139891
      109.02675       71.65761845        1.41355542
      109.12644       71.93105702        1.38229251
      109.22614       72.43673223        1.38825901
      109.32583       72.79433990        1.51651925
      109.42552       72.26475547        1.59378495
      109.52522       74.44592394        1.45955800
      109.62491       72.23592954        1.36741824
      109.72461       66.20513418        1.25130224
      109.82430       66.56136756        1.17203634
      109.92399       61.70528782        1.46697410
      110.02369       59.52085598        1.26159955
      110.12338       58.24003541        1.23976436
      110.22307       58.14413797        1.22946849
      110.32277       53.84175292        1.20796135
      110.42246       56.27064526        1.50163475
      110.52215       54.34224238        1.24976328
      110.62185       56.05976149        1.19638993
      110.72154       48.90977262        1.04230540
      110.82123       51.57855120        1.10553603
      110.92093       53.16380246        1.30915377
      111.02062       53.47017006        1.21296012
      111.12031       52.56726175        1.21161680
      111.22001       54.52424397        1.21093105
      111.31970       54.85219092        1.31815634
      111.41939       53.20839222        1.34331523
      111.51909       56.69373050        1.25833680
      111.61878       57.31208886        1.19184799
      111.71847       57.46377195        1.11035045
      111.81817       62.67594575        1.25881835
      111.91786       65.11207460        1.35036605
      112.01755       66.20511972        1.32962791
      112.11725       69.88490218        1.37660431
      112.21694       71.89616850        1.39010067
      112.31663       72.15348107        1.53457449
      112.41633       77.01385046        1.55776282
      112.51602       78.26884052        1.44621142
      112.61571       80.91447612        1.40282726
      112.71541       83.09857095        1.33983365
      112.81510       86.16750698        1.52997309
      112.91479       87.18789479        1.56776778
      113.01449       90.11801172        1.56098325
      113.11418       87.31833200        1.53125840
      113.21387       90.83206179        1.55485101
      113.31357       90.95930199        1.72799894
      113.41326       94.74872704        1.67628052
      113.51296       93.11566329        1.56305663
      113.61265       95.68559186        1.52900172
      113.71234       91.81177248        1.43039726
      113.81204       93.20551549        1.65118830
      113.91173       93.89981913        1.60602040
      114.01142       86.36597536        1.52432845
      114.11112       86.17319147        1.52180848
      114.21081       87.93399963        1.54849266
      114.31050       83.47953406        1.71072823
      114.41020       79.85025891        1.54586578
      114.50989       79.51304908        1.44410751
      114.60958       80.13355045        1.40295810
      114.70928       78.29583256        1.33743107
      114.80897       72.77541032        1.46215636
      114.90866       72.33646495        1.37492266
      115.00836       68.10013282        1.32762137
      115.10805       69.61680787        1.34970717
      115.20774       71.86413812        1.39218168
      115.30744       69.70456502        1.57415874
      115.40713       69.76208789        1.42640005
      115.50682       70.46230370        1.35340639
      115.60652       70.62048471        1.30584529
      115.70621       70.44636599        1.25345554
      115.80590       71.25578569        1.47067599
      115.90560       74.69216214        1.36489986
      116.00529       77.30537711        1.40419323
      116.10498       80.03250265        1.44381342
      116.20468       84.78169912        1.52040672
      116.30437       86.85805705        1.83461122
      116.40406       88.41358554        1.61220170
      116.50376       96.08054784        1.58863407
      116.60345      101.01534977        1.56391016
      116.70314      110.98659744        1.59010646
      116.80284      117.44799577        1.94401171
      116.90253      124.83341200        1.80334733
      117.00222      132.63973870        1.84467872
      117.10192      143.20588566        1.96882754
      117.20161      149.96002745        2.03972954
      117.30131      148.32996224        2.42734372
      117.40100      157.09738266        2.10075811
      117.50069      164.76776165        2.04389229
      117.60039      173.15157353        2.00574546
      117.70008      184.15366791        2.00467256
      117.79977      185.99617350        2.46893420
      117.89947      187.70977519        2.15631113
      117.99916      189.68939212        2.19365232
      118.09885      191.75181735        2.24705973
      118.19855      194.22028251        2.36884674
      118.29824      197.33507322        2.61790305
      118.39793      196.62683723        2.37252504
      118.49763      198.29609690        2.24840811
      118.59732      199.51529447        2.17754729
      118.69701      199.93896572        2.27088207
      118.79671      194.80580221        2.41991274
      118.89640      191.43951555        2.23637488
      118.99609      184.45155180        2.19229613
      119.09579      180.24124990        2.19206879
      119.19548      175.65919145        2.36417014
      119.29517      171.29613891        2.42512914
      119.39487      168.27299225        2.20934365
      119.49456      161.83978912        2.04136555
      119.59425      153.50639324        1.93021117
      119.69395      144.68582770        1.97641305
      119.79364      139.50227078        1.96094972
      119.89333      136.44676200        1.87674519
      119.99303      130.54903065        1.79196330
      120.09272      130.21956943        1.83046867
      120.19241      129.42017228        2.05110036
      120.29211      121.20128224        1.96410002
      120.39180      119.28295679        1.85882341
      120.49149      121.20546534        1.74279261
      120.59119      116.77572406        1.66011480
      120.69088      119.02546400        1.80439713
      120.79057      115.09685898        1.73603876
      120.89027      119.18451062        1.73463529
      120.98996      117.61201705        1.70981700
      121.08966      116.54266968        1.71470346
      121.18935      117.79586182        1.97612044
      121.28904      116.25067376        1.91324780
      121.38874      116.10200867        1.80808404
      121.48843      116.98931723        1.71431744
      121.58812      116.23254074        1.62968654
      121.68782      119.37684982        1.82987475
      121.78751      122.38117576        1.76568521
      121.88720      121.53087977        1.73699233
      121.98690      120.88885065        1.74533909
      122.08659      119.78468804        1.77207365
      122.18628      121.25974570        2.06843557
      122.28598      119.94281619        1.93445452
      122.38567      116.32142719        1.82427866
      122.48536      117.43835316        1.73397897
      122.58506      117.30845911        1.64134486
      122.68475      114.78582044        1.83967021
      122.78444      108.57896696        1.68440053
      122.88414      107.03488243        1.65809487
      122.98383      103.80175080        1.66612855
      123.08352      104.02973286        1.65370796
      123.18322      100.64987123        1.89693144
      123.28291       99.37839806        1.71302070
      123.38260       98.96497332        1.65022294
      123.48230       99.16457173        1.59211994
      123.58199       96.08951917        1.46469915
      123.68168       92.46451010        1.63933536
      123.78138       94.82867785        1.49792970
      123.88107       89.11134096        1.41821364
      123.98076       90.17751232        1.45311830
      124.08046       86.98780797        1.41199228
      124.18015       84.95183727        1.57925316
      124.27984       83.86279271        1.40575532
      124.37954       81.73690032        1.30949655
      124.47923       81.26472605        1.27468108
      124.57893       75.08497924        1.30510213
