        5.04651       56.64571267        2.56738472
        5.14621       57.02293946        2.48258053
        5.24590       55.78623036        2.42019382
        5.34559       50.06953840        2.10248716
        5.44529       54.04715110        2.37676583
        5.54498       51.83963334        1.95787548
        5.64467       52.47732678        1.95270714
        5.74437       50.10593591        1.72225357
        5.84406       51.72440253        1.77094213
        5.94375       51.93548314        1.77218658
        6.04345       50.66248055        1.70069991
        6.14314       50.54677693        1.55539617
        6.24283       47.78599653        1.56209387
        6.34253       51.86497546        1.55242552
        6.44222       48.79586615        1.58537411
        6.54191       50.67476616        1.53064198
        6.64161       46.67480003        1.39143516
        6.74130       48.36513097        1.42221234
        6.84099       48.72061683        1.41711235
        6.94069       46.13096119        1.39957245
        7.04038       47.35478821        1.30898747
        7.14007       49.00470694        1.32891226
        7.23977       47.86495187        1.29035304
        7.33946       45.68148496        1.27977592
        7.43915       47.91797916        1.29372799
        7.53885       47.78783669        1.26812656
        7.63854       48.68864287        1.22345592
        7.73823       49.23531031        1.27752354
        7.83793       46.50063797        1.20133512
        7.93762       47.24945694        1.26324865
        8.03732       46.78448986        1.12730802
        8.13701       48.44146501        1.14198604
        8.23670       46.62262816        1.13607765
        8.33640       47.11729160        1.14242216
        8.43609       46.44277130        1.18574701
        8.53578       47.84268844        1.12103148
        8.63548       47.68001669        1.10625480
        8.73517       47.31171552        1.08095690
        8.83486       46.34881733        1.07246952
        8.93456       46.53465961        1.06910520
        9.03425       48.74084489        1.06219708
        9.13394       48.29618992        1.05931492
        9.23364       46.61524081        1.05585002
        9.33333       47.33781990        1.08569271
        9.43302       48.15823608        1.09549952
        9.53272       47.08664503        1.04660525
        9.63241       46.51646388        1.06963062
        9.73210       48.56362249        1.09080202
        9.83180       44.95896053        1.09347319
        9.93149       46.69488638        1.10647436
       10.03118       47.65078660        1.07551797
       10.13088       49.53185652        1.07033670
       10.23057       46.90779170        1.09066566
       10.33026       45.38399774        1.10886517
       10.42996       46.77209101        1.11032572
       10.52965       49.37282989        1.10489076
       10.62934       47.86639666        1.09046023
       10.72904       45.90793129        1.08363811
       10.82873       46.57439794        1.08600096
       10.92842       47.11844710        1.11065620
       11.02812       50.13807708        1.09162970
       11.12781       50.81457330        1.13841664
       11.22750       50.68243625        1.14825723
       11.32720       52.61709584        1.20151885
       11.42689       51.68148132        1.14943648
       11.52658       52.18273840        1.14125233
       11.62628       52.71399143        1.15951454
       11.72597       57.40292537        1.23588952
       11.82567       57.93228632        1.27612451
       11.92536       61.77267924        1.23333634
       12.02505       67.83758977        1.29875878
       12.12475       76.48584672        1.37822653
       12.22444       80.86023644        1.50286091
       12.32413       89.68601959        1.60730551
       12.42383      102.08833770        1.62823418
       12.52352      115.81385321        1.72409140
       12.62321      140.56929410        1.95458543
       12.72291      166.06901703        2.06847677
       12.82260      187.98092197        2.39311328
       12.92229      209.42694480        2.29484569
       13.02199      236.72988907        2.42150788
       13.12168      260.56558645        2.58511160
       13.22137      295.00597097        2.84122791
       13.32107      306.08638458        2.98628701
       13.42076      343.97977518        3.04920109
       13.52045      363.24543132        3.17149722
       13.62015      364.38622612        3.07810840
       13.71984      344.05960524        3.11602108
       13.81953      318.49177398        3.04829877
       13.91923      276.35731348        2.66611116
       14.01892      216.33358218        2.29524867
       14.11861      170.13482654        2.12317783
       14.21831      133.21014668        1.87996995
       14.31800      107.97866382        1.78153457
       14.41769       84.44818793        1.51679620
       14.51739       70.88321558        1.35552461
       14.61708       61.17774208        1.26226868
       14.71677       57.60244528        1.24477495
       14.81647       52.17739050        1.24088502
       14.91616       49.59795795        1.11249292
       15.01585       49.11890440        1.12705387
       15.11555       47.38982611        1.11980290
       15.21524       46.51859030        1.14343556
       15.31493       48.31532423        1.19348525
       15.41463       48.75940231        1.16088121
       15.51432       47.51899775        1.11046245
       15.61402       47.65539500        1.14022028
       15.71371       46.95382504        1.12399419
       15.81340       46.40521440        1.16240963
       15.91310       46.80216115        1.13429900
       16.01279       47.59322795        1.09525080
       16.11248       48.66442515        1.13729154
       16.21218       47.10974920        1.14992401
       16.31187       48.57111065        1.17053857
       16.41156       47.73795698        1.13881410
       16.51126       48.22847673        1.16402428
       16.61095       50.17886550        1.14493406
       16.71064       50.19921951        1.18137269
       16.81034       51.46694914        1.19987037
       16.91003       50.25070461        1.15136665
       17.00972       55.00701710        1.15662611
       17.10942       58.13118910        1.25685345
       17.20911       60.40221739        1.29257075
       17.30880       63.21669803        1.33393106
       17.40850       65.67147460        1.35935090
       17.50819       71.50794299        1.37759879
       17.60788       76.95447809        1.47374067
       17.70758       73.02247029        1.44131110
       17.80727       73.76721733        1.46656633
       17.90696       72.37227669        1.35811957
       18.00666       68.17255437        1.34108133
       18.10635       60.79214128        1.23150101
       18.20604       59.87203898        1.34069627
       18.30574       54.80952995        1.22234982
       18.40543       56.49332873        1.21035574
       18.50512       53.74310307        1.21766865
       18.60482       53.56141783        1.19653615
       18.70451       50.25370876        1.22464391
       18.80420       51.76713017        1.16772380
       18.90390       51.06711564        1.14739244
       19.00359       49.09492577        1.09553438
       19.10328       49.51841696        1.16406834
       19.20298       49.43864543        1.19931940
       19.30267       47.40924192        1.12776374
       19.40237       45.99122644        1.09814368
       19.50206       47.37425604        1.14260997
       19.60175       45.80645732        1.11088443
       19.70145       46.59331430        1.17486039
       19.80114       45.21942633        1.09768019
       19.90083       45.67995331        1.06598909
       20.00053       45.19233353        1.07907902
       20.10022       46.41904390        1.10179642
       20.19991       48.58863351        1.20524877
       20.29961       48.06326924        1.13576799
       20.39930       49.61659185        1.18890056
       20.49899       48.08047004        1.14995713
       20.59869       51.96197520        1.21749804
       20.69838       51.36256023        1.25506566
       20.79807       51.93544918        1.20376320
       20.89777       53.70685401        1.19650109
       20.99746       55.19080692        1.22504243
       21.09715       57.59673233        1.31829716
       21.19685       57.89981621        1.31488599
       21.29654       60.08286850        1.30672121
       21.39623       56.92626107        1.27185753
       21.49593       56.81410233        1.25243848
       21.59562       54.58619560        1.25709961
       21.69531       53.58307680        1.29543411
       21.79501       47.97465692        1.12110996
       21.89470       46.83185566        1.08270845
       21.99439       47.24873224        1.13364156
       22.09409       43.64229930        1.09207924
       22.19378       45.98548311        1.19060391
       22.29347       45.71900531        1.10563436
       22.39317       43.18274781        1.10226732
       22.49286       47.38943440        1.15395703
       22.59255       49.55224561        1.19396158
       22.69225       48.47599245        1.24441232
       22.79194       49.37838381        1.12798819
       22.89163       52.49829290        1.14046236
       22.99133       58.14140934        1.23372073
       23.09102       60.77645460        1.31010572
       23.19072       65.93461778        1.36803555
       23.29041       70.11649170        1.39339193
       23.39010       67.95970866        1.38606016
       23.48980       66.24267971        1.37332376
       23.58949       65.54085844        1.38431378
       23.68918       64.07595070        1.43926019
       23.78888       57.32662586        1.21294691
       23.88857       52.26415194        1.17309833
       23.98826       49.46794254        1.16666409
       24.08796       45.24546629        1.09385962
       24.18765       46.77655291        1.19180914
       24.28734       45.77136580        1.12242105
       24.38704       43.57653522        1.11339743
       24.48673       43.08908019        1.10317428
       24.58642       44.63845473        1.16004854
       24.68612       44.54768719        1.15733366
       24.78581       45.08383641        1.07328648
       24.88550       46.20210761        1.08611581
       24.98520       45.67775929        1.11986131
       25.08489       45.95786069        1.14572979
       25.18458       47.78147934        1.19285699
       25.28428       45.72874788        1.12465200
       25.38397       49.13222500        1.16022980
       25.48366       51.73381952        1.19778309
       25.58336       55.82656439        1.29707512
       25.68305       58.29670236        1.30006775
       25.78274       69.53448151        1.34051860
       25.88244       84.20347444        1.51295239
       25.98213      105.05187162        1.70450504
       26.08182      133.24778332        1.97126236
       26.18152      152.70257135        2.16187077
       26.28121      176.97131289        2.20234925
       26.38090      195.83937399        2.33718754
       26.48060      193.36833474        2.38616495
       26.58029      187.01867667        2.44800801
       26.67998      169.32399506        2.19946361
       26.77968      145.68256041        2.01525911
       26.87937      114.27883787        1.75828321
       26.97907       93.12994336        1.57344770
       27.07876       79.51085039        1.56499537
       27.17845       77.13668579        1.47304000
       27.27815       78.30997449        1.44947214
       27.37784       81.41380117        1.53563122
       27.47753       82.84351450        1.52623149
       27.57723       86.92290238        1.63793159
       27.67692       85.72043389        1.58761242
       27.77661       77.57026072        1.44113535
       27.87631       70.37512679        1.34963231
       27.97600       62.13188092        1.29644124
       28.07569       56.04825265        1.30301335
       28.17539       51.73419194        1.19829847
       28.27508       50.00993142        1.17862417
       28.37477       48.77921371        1.19168722
       28.47447       49.30000536        1.18869696
       28.57416       50.79158977        1.30448918
       28.67385       51.07921299        1.16387051
       28.77355       52.93651020        1.16353022
       28.87324       57.32320548        1.24321230
       28.97293       58.00815445        1.25356250
       29.07263       58.91720042        1.37715435
       29.17232       58.66297230        1.25404839
       29.27201       55.60529545        1.24335743
       29.37171       51.39467636        1.22949863
       29.47140       51.12809560        1.21214961
       29.57109       48.40248867        1.25052070
       29.67079       46.85125663        1.12001196
       29.77048       48.20149959        1.13872684
       29.87017       44.95872014        1.07804722
       29.96987       46.61234292        1.15103016
       30.06956       47.76424786        1.20212990
       30.16925       44.00258716        1.08625091
       30.26895       47.43470100        1.13226350
       30.36864       49.56032407        1.17635579
       30.46833       49.51759583        1.18775984
       30.56803       52.21401767        1.28849421
       30.66772       54.59346188        1.22614790
       30.76742       56.97833016        1.22765656
       30.86711       60.41208838        1.28943890
       30.96680       60.15709362        1.29413188
       31.06650       61.81728351        1.37564342
       31.16619       62.79911112        1.30371615
       31.26588       58.80681266        1.25384869
       31.36558       58.89875405        1.27127125
       31.46527       57.22198069        1.30373287
       31.56496       59.63557140        1.35242875
       31.66466       63.28351613        1.30303795
       31.76435       69.52412668        1.36461695
       31.86404       76.23447284        1.41042249
       31.96374       84.27680018        1.51770108
       32.06343       88.16198542        1.60656841
       32.16312       88.26644353        1.51074073
       32.26282       81.30688186        1.48508572
       32.36251       79.74294477        1.52958143
       32.46220       73.85335441        1.49818483
       32.56190       68.61031519        1.46942415
       32.66159       66.95530394        1.37844842
       32.76128       66.45970332        1.34251346
       32.86098       67.21482912        1.37043485
       32.96067       60.69748659        1.31831585
       33.06036       61.83997094        1.35500125
       33.16006       58.35530743        1.23945669
       33.25975       53.90309687        1.22974397
       33.35944       55.96837126        1.25996369
       33.45914       54.16044260        1.28650889
       33.55883       56.86801325        1.32148375
       33.65852       61.50349371        1.28170276
       33.75822       65.08961585        1.31636906
       33.85791       71.39875627        1.38451295
       33.95760       82.57544639        1.53335841
       34.05730       91.26090856        1.59659030
       34.15699      102.95614708        1.66922174
       34.25668      121.02252760        1.80409010
       34.35638      145.05266355        2.02687742
       34.45607      189.83554039        2.44405487
       34.55577      229.46200545        2.56140130
       34.65546      299.60733783        2.80931770
       34.75515      361.00285412        3.14322523
       34.85485      418.74637940        3.36103040
       34.95454      441.09007107        3.55847384
       35.05423      434.80775958        3.65435988
       35.15393      388.50456695        3.24252588
       35.25362      319.38083818        2.98417152
       35.35331      245.96545693        2.68511893
       35.45301      186.56639368        2.43879331
       35.55270      142.02006725        2.07077233
       35.65239      108.53178363        1.74746935
       35.75209       89.85566456        1.57787855
       35.85178       78.81450026        1.47539102
       35.95147       72.08097271        1.44392302
       36.05117       69.81292132        1.39172013
       36.15086       66.49287463        1.30586253
       36.25055       64.39232669        1.34252441
       36.35025       60.85658940        1.33055729
       36.44994       60.97603151        1.35850262
       36.54963       57.33227655        1.26438399
       36.64933       56.63162295        1.23785475
       36.74902       54.66348899        1.22877924
       36.84871       52.65527812        1.19721221
       36.94841       50.95983492        1.27362275
       37.04810       50.59198624        1.11893940
       37.14779       50.02860451        1.13548593
       37.24749       47.14733528        1.13285156
       37.34718       50.91741187        1.20746591
       37.44687       47.23370036        1.24909558
       37.54657       46.51880844        1.13165134
       37.64626       47.78865677        1.14264615
       37.74595       48.70917918        1.13559847
       37.84565       44.48963934        1.14817226
       37.94534       46.97881124        1.20207857
       38.04503       47.52676356        1.09280864
       38.14473       47.81182210        1.10683347
       38.24442       47.09317914        1.11853171
       38.34412       49.61778735        1.20045215
       38.44381       48.24949754        1.27995469
       38.54350       47.90692005        1.13689507
       38.64320       49.47662976        1.15193232
       38.74289       49.90240479        1.17202639
       38.84258       54.28474703        1.22555113
       38.94228       55.67343737        1.30184225
       39.04197       60.58398373        1.22476137
       39.14166       64.51337078        1.31489252
       39.24136       68.83313096        1.35472169
       39.34105       72.26404481        1.43663255
       39.44074       71.00343051        1.55322470
       39.54044       70.09584038        1.37984156
       39.64013       68.94484010        1.36423911
       39.73982       67.46267903        1.35490669
       39.83952       62.91885789        1.29944920
       39.93921       62.31628245        1.37120134
       40.03890       58.51110492        1.21606664
       40.13860       56.33322430        1.19158954
       40.23829       56.57781722        1.23643218
       40.33798       55.07476154        1.25785908
       40.43768       57.63957702        1.34648033
       40.53737       56.92248814        1.24187768
       40.63706       55.12207191        1.24765980
       40.73676       59.54525607        1.29489408
       40.83645       59.66426175        1.30701272
       40.93614       63.99856842        1.37653959
       41.03584       67.10297457        1.32659078
       41.13553       76.96420149        1.42270443
       41.23522       92.09871870        1.59466299
       41.33492      113.64732867        1.85517621
       41.43461      137.07769947        2.10364223
       41.53430      166.44632595        2.17205735
       41.63400      193.20786458        2.39230851
       41.73369      209.75631874        2.43875957
       41.83338      211.63371739        2.51487752
       41.93308      215.13971271        2.51326500
       42.03277      225.47651486        2.35229838
       42.13247      243.65153752        2.57055579
       42.23216      288.53843945        2.80392987
       42.33185      354.77369834        3.34000761
       42.43155      416.85109301        3.56850336
       42.53124      483.31228632        3.72227536
       42.63093      526.20518941        3.89176308
       42.73063      541.42287188        3.96529186
       42.83032      527.52318517        3.98297689
       42.93001      493.77449736        3.70827878
       43.02971      428.73020817        3.26334535
       43.12940      343.70343414        2.97922185
       43.22909      261.20130812        2.72753351
       43.32879      201.34702052        2.52131480
       43.42848      153.43990374        2.15136264
       43.52817      113.06741119        1.76575455
       43.62787       90.11875340        1.57058034
       43.72756       72.30274902        1.43949976
       43.82725       68.77925068        1.46600140
       43.92695       61.29019840        1.25467062
       44.02664       57.07292480        1.20480319
       44.12633       54.68687459        1.22322174
       44.22603       55.65095167        1.28442698
       44.32572       54.45513140        1.33905743
       44.42541       53.14446736        1.26293052
       44.52511       54.32796523        1.24262165
       44.62480       55.50949614        1.27386995
       44.72449       56.90352406        1.24994353
       44.82419       60.83907588        1.45043896
       44.92388       65.96625476        1.25979560
       45.02357       74.12771159        1.34665370
       45.12327       85.28874062        1.48815903
       45.22296      108.39852119        1.72280516
       45.32265      129.87633037        2.08682646
       45.42235      145.56676250        2.01181328
       45.52204      176.52062190        2.19430840
       45.62174      205.44808910        2.41141022
       45.72143      221.60162546        2.50463766
       45.82112      227.38891125        2.77733052
       45.92082      237.49470143        2.41038037
       46.02051      231.59768177        2.43069092
       46.12020      229.82305071        2.42946791
       46.21990      216.60752171        2.47797164
       46.31959      199.96023955        2.57035871
       46.41928      181.76862206        2.26295701
       46.51898      151.69052966        2.07755800
       46.61867      123.06637493        1.86080524
       46.71836      102.32186525        1.73963970
       46.81806       83.42545364        1.62805794
       46.91775       69.65762114        1.29628417
       47.01744       61.92943693        1.25113408
       47.11714       65.63088402        1.31756705
       47.21683       68.46899683        1.38545546
       47.31652       74.87685260        1.58082884
       47.41622       86.05533184        1.59747029
       47.51591       99.12076571        1.71799308
       47.61560      116.14785921        1.84468895
       47.71530      133.67487948        2.00091833
       47.81499      148.94159843        2.16574823
       47.91468      158.00411808        1.95146398
       48.01438      171.27120331        2.03318688
       48.11407      171.50563699        2.11052831
       48.21376      174.81794695        2.22498648
       48.31346      170.25725682        2.27385395
       48.41315      163.06806451        2.07415239
       48.51284      144.23165381        2.01485127
       48.61254      122.03943500        1.84501106
       48.71223      106.31394451        1.75286509
       48.81192       89.85765562        1.60714198
       48.91162       74.19823156        1.30870146
       49.01131       65.01502200        1.26773458
       49.11100       56.82170950        1.22758298
       49.21070       53.21180502        1.24707510
       49.31039       51.72268272        1.26532636
       49.41009       50.27872176        1.17847899
       49.50978       47.93632450        1.17441438
       49.60947       48.98842143        1.19596748
       49.70917       48.91842900        1.23942448
       49.80886       47.80555187        1.19242027
       49.90855       48.06882737        1.08921531
       50.00825       50.46511198        1.13970310
       50.10794       51.00132616        1.17183940
       50.20763       52.96288487        1.24770889
       50.30733       53.39835606        1.31234226
       50.40702       53.42640547        1.23099480
       50.50671       54.02294938        1.24150943
       50.60641       57.83093171        1.28651221
       50.70610       56.41638566        1.30741848
       50.80579       58.88592339        1.31821500
       50.90549       56.71576243        1.16628783
       51.00518       56.52360122        1.17462510
       51.10487       56.16566037        1.21033431
       51.20457       54.83794000        1.27312907
       51.30426       57.75924141        1.29993681
       51.40395       56.98836290        1.23783491
       51.50365       60.60319876        1.29123317
       51.60334       59.79725256        1.30791207
       51.70303       59.55016523        1.38604468
       51.80273       60.48671837        1.28137825
       51.90242       62.05216766        1.21266440
       52.00211       61.71664368        1.21508622
       52.10181       63.02539241        1.26682375
       52.20150       61.27485952        1.37552269
       52.30119       61.41478036        1.32655814
       52.40089       61.21186044        1.30361775
       52.50058       63.95313357        1.35779215
       52.60027       62.62518970        1.36190963
       52.69997       57.75146253        1.43303178
       52.79966       60.95214413        1.23786946
       52.89935       65.02869621        1.23386789
       52.99905       76.28608018        1.35871847
       53.09874       85.00763657        1.48082545
       53.19844       98.31779300        1.82426501
       53.29813      112.93847623        1.73813593
       53.39782      124.48513650        1.88814256
       53.49752      135.36629243        1.97826613
       53.59721      144.74213202        2.04443006
       53.69690      147.36281514        2.26346536
       53.79660      150.68895526        1.91746690
       53.89629      149.39844573        1.88856432
       53.99598      145.20282686        1.90720321
       54.09568      139.45336242        1.95165050
       54.19537      123.96467718        2.00600279
       54.29506      115.42694318        1.77801487
       54.39476      105.68964780        1.71418282
       54.49445       95.21955497        1.62777221
       54.59414       90.94552672        1.61489757
       54.69384       88.13334913        1.69581405
       54.79353       85.15779738        1.42934020
       54.89322       84.27586699        1.41678385
       54.99292       79.16002320        1.41309657
       55.09261       71.20237309        1.39336903
       55.19230       71.48076206        1.49930323
       55.29200       66.99254561        1.35077207
       55.39169       63.84497380        1.36050922
       55.49138       59.95652895        1.31338163
       55.59108       54.63237378        1.29369013
       55.69077       56.42422195        1.34936060
       55.79046       55.83266483        1.17349550
       55.89016       53.15776766        1.14219668
       55.98985       57.63646510        1.19715300
       56.08954       59.66677160        1.25828150
       56.18924       66.55976422        1.43456447
       56.28893       72.81616837        1.37350750
       56.38862       86.21185234        1.54650122
       56.48832       94.25092567        1.64508090
       56.58801      104.64969475        1.78401567
       56.68770      109.23821821        1.88135738
       56.78740      114.80140358        1.65086750
       56.88709      115.88321303        1.67525066
       56.98679      105.45140191        1.59900925
       57.08648       95.53506423        1.61298853
       57.18617       83.74237402        1.56319822
       57.28587       75.37152755        1.38535798
       57.38556       67.58867886        1.39625761
       57.48525       60.25289396        1.34337323
       57.58495       56.70765017        1.33300322
       57.68464       53.36508964        1.30426975
       57.78433       52.24909272        1.12894637
       57.88403       52.38214161        1.14356663
       57.98372       54.31940994        1.18314531
       58.08341       53.54359766        1.27005173
       58.18311       51.82135145        1.27803714
       58.28280       53.27099735        1.22055229
       58.38249       52.99900053        1.27209001
       58.48219       52.87304671        1.29800795
       58.58188       51.36386384        1.29327174
       58.68157       54.07140712        1.30039278
       58.78127       50.89014041        1.10336535
       58.88096       53.88131029        1.11869489
       58.98065       56.11956757        1.18525938
       59.08035       59.38174181        1.30111979
       59.18004       58.65873614        1.31176699
       59.27973       56.93076647        1.21918694
       59.37943       64.25988580        1.33831709
       59.47912       67.39656100        1.42690271
       59.57881       71.99477504        1.54516307
       59.67851       80.05545051        1.51944570
       59.77820       83.71214160        1.42844218
       59.87789       92.56946945        1.49711775
       59.97759       99.52909698        1.62417194
       60.07728      103.86836498        1.79694518
       60.17697      110.40689834        1.76523197
       60.27667      108.87073261        1.70413441
       60.37636      108.56815987        1.73475644
       60.47605      100.95300779        1.74469643
       60.57575       98.93089999        1.89278189
       60.67544       92.80890861        1.57477279
       60.77514       88.24877411        1.45972978
       60.87483       80.20482000        1.36432703
       60.97452       69.76853702        1.34011782
       61.07422       68.61924171        1.49298798
       61.17391       66.33705610        1.27149606
       61.27360       63.97950569        1.29293233
       61.37330       66.68003828        1.36901976
       61.47299       65.86680364        1.42040295
       61.57268       66.65338220        1.62491146
       61.67238       70.87309952        1.36581904
       61.77207       71.92954790        1.34013455
       61.87176       71.98224214        1.32569103
       61.97146       69.67722235        1.35402488
       62.07115       69.04848194        1.52655592
       62.17084       70.86918765        1.35505753
       62.27054       64.38471517        1.34640199
       62.37023       66.64576542        1.42452370
       62.46992       65.82387676        1.46419235
       62.56962       68.73918121        1.68070168
       62.66931       66.63842105        1.33301066
       62.76900       74.35298145        1.37275787
       62.86870       83.98570387        1.42756567
       62.96839       91.87012586        1.54104401
       63.06808       97.81775973        1.76986521
       63.16778      103.68869373        1.61776658
       63.26747      112.59577719        1.74496481
       63.36716      113.95698418        1.82176902
       63.46686      119.79877667        1.92418962
       63.56655      124.91091108        2.08762908
       63.66624      135.44342312        1.84822001
       63.76594      146.43980813        1.86727125
       63.86563      160.81524072        1.95147765
       63.96532      172.81429444        2.11754561
       64.06502      174.25200869        2.27799179
       64.16471      170.55904503        2.08441665
       64.26440      160.54069246        2.10470010
       64.36410      148.82605392        2.06687155
       64.46379      137.94811638        2.10401840
       64.56349      121.62820822        2.00996724
       64.66318      104.18867910        1.62752767
       64.76287       85.56405559        1.45599751
       64.86257       73.01174532        1.34247946
       64.96226       62.35007156        1.29907675
       65.06195       61.23363733        1.39206558
       65.16165       56.61948930        1.20733800
       65.26134       52.41704204        1.18869325
       65.36103       53.00373292        1.24732510
       65.46073       55.95597483        1.32383684
       65.56042       53.76340358        1.35520210
       65.66011       56.47736260        1.21125293
       65.75981       57.19621327        1.20677263
       65.85950       58.83416739        1.21618397
       65.95919       63.55860537        1.32342561
       66.05889       64.62315146        1.38033190
       66.15858       69.68268517        1.36319842
       66.25827       78.75956988        1.49918229
       66.35797       85.82447421        1.63051377
       66.45766      100.88863537        1.87909199
       66.55735      108.12457407        1.94495606
       66.65705      123.94690923        1.84783265
       66.75674      138.40660250        1.90334058
       66.85643      155.01588105        1.99218537
       66.95613      164.05011680        2.13126533
       67.05582      170.19801885        2.18744969
       67.15551      166.74389994        2.06012950
       67.25521      165.33807351        2.15329992
       67.35490      152.25151648        2.17467678
       67.45459      138.78818626        2.18919802
       67.55429      123.77947198        1.98028373
       67.65398      104.76297452        1.63235020
       67.75367       86.68112648        1.47202685
       67.85337       78.95165075        1.42192722
       67.95306       75.39688511        1.48573369
       68.05275       75.40053314        1.40686233
       68.15245       82.06725334        1.45537845
       68.25214       88.50494102        1.60439085
       68.35184       95.50052812        1.73714412
       68.45153      101.47129019        1.97145628
       68.55122      108.38660030        1.75551591
       68.65092      118.89307778        1.71419596
       68.75061      122.85636945        1.76060662
       68.85030      130.92201583        1.85292961
       68.95000      127.56303350        2.07342727
       69.04969      122.37977597        1.71487409
       69.14938      112.45750298        1.68998897
       69.24908      104.56988044        1.74011934
       69.34877       94.05275233        1.70645126
       69.44846       84.51165130        1.87584944
       69.54816       77.16443385        1.39731960
       69.64785       66.03287212        1.27403310
       69.74754       58.56918251        1.21169284
       69.84724       54.53850381        1.19961410
       69.94693       54.19847219        1.34961459
       70.04662       49.46833479        1.06014074
       70.14632       48.92553852        1.09631742
       70.24601       46.51141147        1.14443844
       70.34570       46.88096029        1.21585300
       70.44540       48.76778347        1.46120315
       70.54509       50.11227726        1.15944703
       70.64478       48.39124630        1.13767402
       70.74448       51.63054621        1.19389736
       70.84417       51.08575221        1.23231053
       70.94386       50.60934913        1.34638659
       71.04356       50.55733445        1.11355654
       71.14325       52.93133228        1.18413821
       71.24294       53.75784547        1.25563041
       71.34264       53.82870762        1.33228050
       71.44233       54.50009633        1.49595931
       71.54202       53.39588701        1.20545029
       71.64172       53.15968622        1.16999196
       71.74141       51.90678618        1.13509268
       71.84110       52.34885305        1.18001080
       71.94080       52.78630411        1.29122480
       72.04049       52.85259752        1.09358286
       72.14019       53.95702278        1.15129674
       72.23988       53.75835797        1.20238653
       72.33957       53.79366356        1.34351593
       72.43927       50.90188688        1.43849488
       72.53896       51.84576216        1.16404512
       72.63865       53.62436657        1.15722569
       72.73835       53.86810619        1.13435349
       72.83804       57.34501296        1.23603938
       72.93773       63.85260152        1.38575837
       73.03743       60.65218973        1.17218810
       73.13712       62.41595151        1.25408335
       73.23681       61.02720758        1.30272426
       73.33651       65.11004113        1.48084268
       73.43620       61.59113875        1.55982420
       73.53589       66.49124784        1.30761524
       73.63559       63.27043727        1.25537970
       73.73528       65.94959814        1.27598020
       73.83497       64.66284350        1.33942666
       73.93467       63.33843751        1.39583645
       74.03436       63.64624882        1.23832246
       74.13405       65.57878730        1.31051225
       74.23375       61.77572381        1.32473609
       74.33344       64.50807177        1.49039844
       74.43313       62.38960270        1.52080935
       74.53283       63.69123668        1.30560807
       74.63252       69.98520248        1.35897917
       74.73221       69.94997929        1.35198524
       74.83191       74.29967334        1.47830853
       74.93160       79.22147196        1.54392940
       75.03129       80.37799345        1.38259987
       75.13099       84.30177275        1.46678012
       75.23068       88.71423885        1.56964819
       75.33037       99.81197427        1.83071257
       75.43007      103.70224599        1.89311185
       75.52976      109.80311317        1.69222526
       75.62945      121.24364765        1.77718425
       75.72915      128.75008728        1.82443188
       75.82884      130.32099291        1.97622125
       75.92854      135.91477600        1.89484148
       76.02823      144.49096865        1.83276805
       76.12792      148.68223229        1.94341614
       76.22762      151.80572744        2.07203238
       76.32731      150.07450376        2.32659144
       76.42700      150.86991204        2.20176039
       76.52670      149.29352798        2.02050487
       76.62639      141.33019700        1.94056146
       76.72608      131.08624814        1.83733923
       76.82578      129.93834584        2.10781884
       76.92547      121.77793969        1.63400840
       77.02516      116.94357437        1.65934604
       77.12486      124.13461765        1.79634619
       77.22455      126.75359110        1.93291369
       77.32424      131.81071771        2.42191306
       77.42394      134.97448833        1.95707167
       77.52363      133.29784476        1.87924450
       77.62332      134.69121448        1.88043452
       77.72302      145.64545502        1.96051618
       77.82271      144.03007516        2.28623072
       77.92240      145.12544952        1.75735328
       78.02210      149.58987830        1.92549911
       78.12179      141.42846918        1.99910075
       78.22148      140.20545553        2.10478409
       78.32118      136.21403269        2.40701888
       78.42087      125.56953211        1.81824275
       78.52056      122.26466803        1.85265959
       78.62026      116.97836761        1.79771238
       78.71995      107.61400299        1.72956948
       78.81964      102.63023053        1.88640606
       78.91934       92.21810506        1.38514260
       79.01903       81.67822604        1.42873383
       79.11872       75.53899114        1.42967459
       79.21842       71.12280856        1.47968795
       79.31811       68.97785244        1.64131758
       79.41780       66.58934844        1.30808435
       79.51750       65.67938585        1.32000192
       79.61719       64.32478868        1.31010064
       79.71689       64.97585901        1.36709206
       79.81658       65.16908584        1.45134304
       79.91627       64.71595674        1.22592841
       80.01597       63.23101932        1.24547047
       80.11566       62.71163117        1.29658677
       80.21535       63.44733599        1.39413204
       80.31505       66.84117982        1.70123823
       80.41474       67.66616625        1.31533865
       80.51443       66.08813444        1.29414412
       80.61413       71.35959139        1.38961341
       80.71382       78.08726986        1.50407678
       80.81351       81.38396750        1.72556699
       80.91321       91.09232822        1.34661911
       81.01290      108.91959777        1.59039601
       81.11259      125.64334190        1.84438720
       81.21229      139.15308478        2.09998989
       81.31198      149.67052473        2.42980796
       81.41167      174.02363140        2.05254203
       81.51137      196.10481967        2.24245332
       81.61106      210.95409944        2.42909472
       81.71075      224.51459224        2.59418932
       81.81045      234.01615089        2.80625411
       81.91014      256.26338825        2.25914077
       82.00983      273.88143183        2.49718783
       82.10953      286.69417028        2.85892148
       82.20922      292.87763750        3.21393066
       82.30891      297.75004990        3.39826795
       82.40861      298.80934183        2.76840132
       82.50830      289.95435288        2.71918961
       82.60799      286.99876716        2.91388331
       82.70769      286.20557180        3.16662614
       82.80738      289.91559413        3.04555528
       82.90707      278.85927180        2.42468770
       83.00677      275.16290039        2.56637042
       83.10646      269.39216413        2.98780101
       83.20615      254.57898792        3.23190649
       83.30585      240.16326894        2.97290939
       83.40554      220.56244701        2.36772701
       83.50524      206.62899100        2.23582679
       83.60493      186.42462622        2.33869206
       83.70462      168.31586528        2.50487019
       83.80432      159.68875282        2.13208890
       83.90401      135.94980516        1.64936909
       84.00370      111.80841867        1.55920340
       84.10340       94.94307545        1.71624994
       84.20309       84.33350586        1.96318885
       84.30278       81.51567183        1.56967777
       84.40248       76.38396243        1.34086627
       84.50217       69.63358672        1.25571198
       84.60186       64.38273939        1.36507266
       84.70156       69.69788910        1.85894017
       84.80125       66.25990680        1.26175098
       84.90094       63.80096129        1.11212705
       85.00064       63.81689541        1.14596653
       85.10033       65.29284847        1.37188790
       85.20002       63.69368551        2.32380296
       85.29972       65.33806034        1.24161498
       85.39941       67.29394941        1.28477960
       85.49910       69.03663262        1.26556664
       85.59880       66.04220543        1.39173283
       85.69849       70.35626221        2.57935222
       85.79818       65.80434784        1.17588800
       85.89788       65.28524006        1.14323526
       85.99757       65.20132332        1.17391842
       86.09726       62.19226636        1.31622368
       86.19696       64.25966426        2.56986895
       86.29665       61.96407422        1.19411796
       86.39634       61.85899865        1.21380690
       86.49604       59.54208979        1.17275342
       86.59573       61.38857484        1.26886262
       86.69542       56.34503873        2.54116894
       86.79512       56.08482369        1.05241429
       86.89481       54.99107829        1.02737734
       86.99451       54.11583158        1.05637957
       87.09420       52.92648889        1.16508314
       87.19389       51.97319390        2.73476612
       87.29359       51.55022623        1.10379160
       87.39328       52.27149862        1.12653219
       87.49297       47.32148978        1.04035578
       87.59267       48.21076716        1.07076823
       87.69236       50.99117866        3.29547213
       87.79205       48.95269075        1.00577837
       87.89175       49.23505021        1.00056411
       87.99144       50.11564004        1.05191668
       88.09113       49.41757331        1.11021970
       88.19083       51.92037326        6.02244913
       88.29052       50.93121980        1.13425707
       88.39021       49.38283413        1.12426579
       88.48991       48.05498349        1.06432223
       88.58960       49.16773938        1.04261005
       88.68929       39.54375539        7.24083152
       88.78899       48.51008201        0.99958711
       88.88868       49.52021526        0.98791842
       88.98837       47.34754595        1.00465580
       89.08807       49.95117898        1.05705481
       89.18776       53.36237558        8.89068106
       89.28745       50.62935711        1.08127077
       89.38715       49.85625773        1.08397519
       89.48684       54.04653953        1.10462287
       89.58653       56.46158298        1.10618787
       89.68623       54.18361033        8.78417485
       89.78592       60.63646098        1.11405018
       89.88561       63.34308131        1.11639306
       89.98531       66.58511851        1.17379985
       90.08500       69.86244883        1.24712559
       90.18469       52.54028793        9.01448996
       90.28439       74.44060455        1.31495705
       90.38408       81.65418163        1.40063747
       90.48377       87.24611381        1.42086135
       90.58347       91.87169950        1.43531800
       90.68316       70.67351746        9.79875064
       90.78286       92.86330824        1.38135795
       90.88255       96.08762313        1.36739217
       90.98224       96.53263538        1.41803613
       91.08194       99.44280455        1.48662269
       91.18163      103.51609530       12.10505663
       91.28132       99.38562092        1.53017882
       91.38102       99.02711895        1.56793235
       91.48071      100.84714598        1.54354888
       91.58040       92.18831647        1.42685134
       91.68010       88.01363539       10.54581674
       91.77979       87.00741707        1.33044305
       91.87948       84.03462571        1.28719561
       91.97918       81.15450918        1.31339820
       92.07887       77.49558362        1.33677750
       92.17856       84.19457027       10.59673989
       92.27826       77.10611391        1.37712793
       92.37795       78.13276634        1.41920258
       92.47764       77.77592288        1.34415280
       92.57734       76.24629935        1.29101072
       92.67703       71.11582806        8.09196518
       92.77672       76.32895316        1.24494988
       92.87642       84.24065883        1.28326103
       92.97611       87.13998772        1.36298235
       93.07580       90.06717812        1.58166927
       93.17550       86.61582024        2.91626721
       93.27519       91.61845325        1.47044090
       93.37488       90.98434481        1.42438563
       93.47458       98.62680406        1.49970919
       93.57427      101.87627258        1.76238272
       93.67396      106.05711092        2.43044598
       93.77366       96.85107842        1.43832481
       93.87335       97.37920881        1.37764783
       93.97304       94.44500342        1.41374595
       94.07274       90.73923937        1.79885979
       94.17243       90.70867184        2.05218695
       94.27212       89.84368804        1.52115044
       94.37182       90.64269124        1.48913081
       94.47151       88.70477848        1.41068345
       94.57121       85.51593191        1.82779468
       94.67090       85.42439372        1.84796720
       94.77059       83.12926444        1.41701408
       94.87029       78.83493490        1.25463488
       94.96998       74.14088149        1.23192503
       95.06967       68.90215505        1.36880476
       95.16937       67.27016589        1.85133356
       95.26906       62.94887839        1.38329505
       95.36875       63.69819695        1.26268284
       95.46845       62.16759171        1.19876253
       95.56814       62.22307811        1.38002715
       95.66783       59.40165558        1.51468955
       95.76753       57.44457731        1.23080997
       95.86722       54.20521559        1.01688592
       95.96691       54.58251515        1.05844594
       96.06661       53.92535532        1.34767309
       96.16630       50.81595438        1.39495401
       96.26599       51.58760128        1.26226961
       96.36569       50.35146720        1.11890774
       96.46538       50.42820506        1.08067036
       96.56507       47.85275894        1.29920486
       96.66477       49.79780285        1.29154323
       96.76446       48.12668755        1.13454935
       96.86415       46.83242072        0.96939145
       96.96385       48.72454821        1.02132354
       97.06354       49.43580768        1.39111679
       97.16323       47.66977055        1.30607179
       97.26293       48.93719354        1.24331469
       97.36262       48.69273532        1.14845980
       97.46231       51.35235525        1.08513579
       97.56201       52.37684302        1.39430954
       97.66170       50.79102400        1.23317742
       97.76139       51.37887201        1.12681494
       97.86109       51.96333542        1.02472140
       97.96078       56.26881184        1.08978715
       98.06047       55.48347713        1.50305197
       98.16017       55.40373842        1.33519324
       98.25986       58.48721981        1.31049824
       98.35956       58.88399308        1.24143490
       98.45925       60.51069243        1.17471427
       98.55894       62.21024256        1.55382708
       98.65864       63.53024598        1.34733531
       98.75833       63.80032298        1.26158773
       98.85802       72.09036773        1.25252392
       98.95772       73.10294108        1.25291496
       99.05741       71.07874500        1.71498045
       99.15710       71.15204627        1.47564191
       99.25680       77.15225127        1.48898754
       99.35649       76.68601103        1.41383065
       99.45618       79.08853815        1.33815406
       99.55588       85.99623246        1.86492076
       99.65557       85.66929560        1.53559187
       99.75526       86.82749068        1.44901535
       99.85496       84.97514116        1.36426107
       99.95465       86.20073291        1.34716278
      100.05434       81.20417776        1.86236220
      100.15404       85.87931326        1.61344429
      100.25373       88.96188723        1.62265501
      100.35342       86.23787440        1.59122260
      100.45312       88.31552525        1.46948673
      100.55281       83.34654158        1.87462835
      100.65250       84.28984421        1.53585465
      100.75220       79.94655324        1.38528651
      100.85189       82.59054051        1.34547931
      100.95158       81.29581742        1.29916683
      101.05128       76.93364581        1.80156813
      101.15097       77.54321650        1.49487527
      101.25066       79.47547873        1.49534413
      101.35036       78.45213463        1.49851115
      101.45005       72.92984370        1.35838177
      101.54974       75.07241004        1.71671246
      101.64944       72.83184846        1.37945549
      101.74913       74.28604239        1.31272365
      101.84882       78.84764870        1.31669131
      101.94852       78.97437208        1.38807814
      102.04821       77.42776138        1.65535525
      102.14791       80.94890474        1.52558874
      102.24760       77.04231253        1.47554982
      102.34729       79.59993754        1.49385555
      102.44699       80.36383372        1.52714440
      102.54668       81.74598734        1.61626308
      102.64637       84.09296181        1.46421725
      102.74607       86.06731084        1.41084639
      102.84576       84.91863271        1.37473389
      102.94545       86.50741552        1.58042090
      103.04515       87.12300504        1.67905335
      103.14484       83.70136759        1.53745011
      103.24453       85.61706672        1.53105808
      103.34423       83.59905315        1.50055366
      103.44392       83.10568440        1.62061199
      103.54361       86.41768350        1.60559027
      103.64331       87.53737997        1.47101028
      103.74300       87.32186976        1.40140696
      103.84269       89.35861891        1.39321560
      103.94239       84.06425283        1.62359689
      104.04208       83.18639422        1.56245695
      104.14177       83.67171748        1.52458495
      104.24147       84.48905115        1.53127795
      104.34116       82.08000939        1.51853115
      104.44085       83.35622743        1.73811705
      104.54055       77.08054006        1.51294310
      104.64024       78.94428141        1.43934299
      104.73993       72.61895920        1.31704585
      104.83963       72.95156406        1.27180737
      104.93932       70.94147427        1.52030873
      105.03901       74.94214703        1.47255307
      105.13871       71.63186746        1.38606011
      105.23840       71.35198053        1.38254161
      105.33809       70.73236564        1.38462122
      105.43779       72.09365391        1.62656991
      105.53748       68.07387884        1.41724195
      105.63717       64.94600486        1.26873308
      105.73687       62.87590371        1.18794796
      105.83656       63.49948844        1.16331492
      105.93626       62.23594559        1.45940402
      106.03595       57.84065313        1.27493862
      106.13564       59.70526046        1.25203605
      106.23534       57.14443800        1.23986301
      106.33503       55.92909892        1.23894620
      106.43472       53.10164685        1.42707136
      106.53442       52.80245838        1.23775868
      106.63411       53.23666065        1.12901215
      106.73380       53.72142260        1.08096150
      106.83350       53.03703118        1.05799315
      106.93319       55.58842917        1.40422243
      107.03288       55.00914716        1.23801485
      107.13258       57.03967241        1.22372977
      107.23227       58.73223767        1.25984992
      107.33196       58.51784335        1.25408723
      107.43166       56.66942637        1.48275406
      107.53135       56.83845844        1.28123253
      107.63104       58.81540304        1.18683916
      107.73074       58.65923775        1.13714743
      107.83043       59.93772732        1.13499385
      107.93012       65.45746269        1.56936405
      108.02982       64.28502296        1.36118713
      108.12951       64.25363637        1.29411570
      108.22920       63.46112476        1.26545259
      108.32890       67.17258677        1.28968698
      108.42859       64.19826954        1.59999738
      108.52828       65.76571128        1.37373933
      108.62798       67.59620529        1.26294417
      108.72767       69.17529748        1.22636223
      108.82736       66.54565095        1.22921607
      108.92706       65.00898889        1.53863047
      109.02675       65.77046038        1.35394035
      109.12644       67.00227858        1.33383957
      109.22614       66.20551196        1.32689126
      109.32583       66.05059572        1.44419837
      109.42552       66.84088268        1.53248791
      109.52522       66.29097315        1.37687944
      109.62491       65.21576174        1.29893122
      109.72461       67.58328919        1.26429795
      109.82430       62.18847626        1.13268841
      109.92399       61.83245004        1.46846554
      110.02369       62.46669960        1.29255361
      110.12338       59.32291184        1.25126254
      110.22307       61.82707566        1.26795079
      110.32277       60.81798380        1.28412827
      110.42246       59.54974586        1.54491917
      110.52215       56.51274924        1.27455244
      110.62185       55.87043003        1.19433888
      110.72154       54.85812383        1.10408095
      110.82123       56.03464726        1.15246330
      110.92093       56.02398765        1.34401992
      111.02062       54.71958000        1.22708189
      111.12031       55.28966219        1.24269206
      111.22001       56.33720099        1.23095525
      111.31970       59.92221038        1.37795065
      111.41939       57.84031765        1.40076840
      111.51909       59.18035480        1.28572620
      111.61878       60.56744140        1.22534799
      111.71847       62.76155516        1.16060153
      111.81817       62.53069318        1.25733022
      111.91786       66.42493374        1.36395078
      112.01755       69.62066440        1.36363430
      112.11725       69.56178472        1.37337838
      112.21694       72.39200962        1.39488565
      112.31663       72.63967109        1.53973516
      112.41633       74.69401685        1.53396961
      112.51602       74.32590720        1.40909284
      112.61571       80.69147209        1.40085713
      112.71541       81.22998667        1.32457371
      112.81510       85.48300769        1.52382058
      112.91479       88.29000999        1.57767876
      113.01449       87.02840681        1.53379809
      113.11418       88.24459095        1.53938160
      113.21387       85.12420180        1.50487706
      113.31357       87.32407365        1.69287082
      113.41326       93.43270443        1.66449217
      113.51296       88.41787287        1.52283936
      113.61265       93.09804974        1.50802278
      113.71234       94.61237981        1.45216683
      113.81204       92.47969937        1.64467574
      113.91173       91.81751592        1.58796913
      114.01142       88.16589096        1.54020069
      114.11112       89.26503400        1.54900956
      114.21081       89.27995559        1.56034486
      114.31050       88.13812132        1.75807060
      114.41020       87.50735668        1.61869512
      114.50989       89.00140305        1.52832542
      114.60958       86.27212351        1.45599118
      114.70928       85.02766515        1.39404652
      114.80897       86.75941652        1.59722289
      114.90866       82.91499085        1.47254964
      115.00836       82.50898554        1.46205313
      115.10805       84.36980543        1.48659795
      115.20774       86.01033828        1.52378378
      115.30744       87.17608029        1.76147122
      115.40713       86.95961700        1.59347483
      115.50682       89.38295328        1.52531031
      115.60652       88.58709376        1.46345074
      115.70621       88.71943252        1.40753821
      115.80590       92.90233052        1.68051672
      115.90560       92.88265355        1.52300181
      116.00529       91.79828130        1.53092079
      116.10498       97.53886388        1.59487273
      116.20468      100.90436490        1.65959395
      116.30437       99.08017771        1.96024816
      116.40406      101.83295835        1.73101548
      116.50376      102.00733845        1.63721047
      116.60345      104.98200677        1.59451400
      116.70314      110.89241913        1.58939847
      116.80284      114.26721974        1.91725929
      116.90253      116.09925794        1.73855387
      117.00222      125.50253408        1.79388251
      117.10192      123.89250632        1.82998925
      117.20161      126.73240217        1.87356196
      117.30131      131.02748029        2.27996139
      117.40100      136.52478391        1.95693885
      117.50069      137.61980315        1.86613281
      117.60039      142.96878885        1.82061266
      117.70008      148.52199426        1.79804525
      117.79977      154.07606581        2.24457175
      117.89947      155.50726442        1.96041259
      117.99916      161.13103163        2.01973968
      118.09885      158.79167382        2.04245051
      118.19855      162.89491738        2.16701109
      118.29824      169.29225913        2.42235367
      118.39793      170.19421432        2.20522944
      118.49763      173.17881526        2.09931403
      118.59732      178.95155552        2.06076397
      118.69701      177.43906270        2.13757893
      118.79671      176.67392101        2.30304676
      118.89640      176.69681722        2.14739656
      118.99609      175.44719859        2.13740706
      119.09579      173.30022049        2.14888830
      119.19548      179.68510904        2.39140284
      119.29517      183.14874130        2.50862114
      119.39487      173.32900819        2.24264609
      119.49456      174.06112798        2.11790636
      119.59425      171.73510920        2.04286688
      119.69395      169.71604768        2.14238948
      119.79364      158.98542001        2.09480066
      119.89333      154.88049798        2.00075738
      119.99303      153.95910874        1.94756972
      120.09272      149.92021822        1.96537758
      120.19241      147.31746459        2.18966357
      120.29211      142.42220951        2.13065855
      120.39180      138.75242685        2.00612349
      120.49149      132.37354584        1.82199605
      120.59119      127.37237108        1.73441506
      120.69088      125.22582029        1.85116797
      120.79057      122.37538146        1.79051448
      120.89027      124.30837086        1.77181665
      120.98996      121.99109117        1.74159367
      121.08966      124.68472784        1.77406458
      121.18935      122.31455557        2.01394954
      121.28904      114.71999181        1.90047474
      121.38874      115.70399264        1.80492527
      121.48843      117.28147210        1.71644407
      121.58812      114.45496230        1.61704770
      121.68782      116.54807931        1.80785329
      121.78751      114.87536069        1.71020259
      121.88720      110.90135999        1.65864559
      121.98690      112.90468721        1.68621725
      122.08659      113.85877578        1.72729512
      122.18628      106.51997470        1.93761364
      122.28598      108.49553497        1.83905808
      122.38567      111.48521751        1.78561860
      122.48536      109.80740977        1.67621943
      122.58506      107.14165182        1.56802116
      122.68475      105.26981953        1.76114558
      122.78444      109.04027231        1.68797249
      122.88414      104.25763760        1.63625393
      122.98383      104.00697329        1.66775741
      123.08352      104.04981481        1.65383963
      123.18322      105.41614393        1.94161695
      123.28291      104.20748941        1.75441371
      123.38260       99.97345278        1.65863922
      123.48230      100.78945622        1.60517422
      123.58199       99.66685647        1.49187581
      123.68168       97.05195822        1.67975019
      123.78138       98.09353633        1.52364536
      123.88107       94.01624735        1.45694701
      123.98076       90.83305492        1.45839831
      124.08046       88.31639499        1.42277559
      124.18015       87.60322495        1.60382952
      124.27984       90.30136672        1.45902516
      124.37954       84.67382466        1.33292899
      124.47923       86.13755792        1.31254276
      124.57893       81.40097322        1.35916284
