        5.04651       60.49965943        2.65084357
        5.14621       57.59272921        2.49236875
        5.24590       61.75902421        2.54430680
        5.34559       59.82835228        2.29662740
        5.44529       58.13041839        2.46266513
        5.54498       56.32252499        2.03894199
        5.64467       56.05958108        2.01637876
        5.74437       53.98100671        1.78596663
        5.84406       53.43925545        1.79826680
        5.94375       54.00563458        1.80538421
        6.04345       54.96787103        1.76988837
        6.14314       56.74362596        1.64660244
        6.24283       53.39320669        1.64978225
        6.34253       55.39650106        1.60291313
        6.44222       52.50956609        1.64307466
        6.54191       52.89940443        1.56234958
        6.64161       54.60607499        1.50385033
        6.74130       52.47789325        1.48009773
        6.84099       52.81672182        1.47413517
        6.94069       53.79402246        1.51016505
        7.04038       53.10672155        1.38502403
        7.14007       54.09969156        1.39506296
        7.23977       53.85837788        1.36760005
        7.33946       53.64242191        1.38573709
        7.43915       52.73608949        1.35600853
        7.53885       51.42736679        1.31430975
        7.63854       53.71330655        1.28390637
        7.73823       54.57571526        1.34385701
        7.83793       51.50271486        1.26318597
        7.93762       54.91233188        1.36076670
        8.03732       54.70516874        1.21805826
        8.13701       52.51596813        1.18795832
        8.23670       52.99110479        1.21017891
        8.33640       56.50669481        1.25017599
        8.43609       51.82985790        1.25154478
        8.53578       52.15125018        1.16936289
        8.63548       55.27499540        1.19016889
        8.73517       55.05697762        1.16517128
        8.83486       54.03462027        1.15707180
        8.93456       53.87488099        1.14941978
        9.03425       54.97215957        1.12711020
        9.13394       54.03335892        1.11951124
        9.23364       53.18032980        1.12682180
        9.33333       54.44759510        1.16343459
        9.43302       54.56595393        1.16513668
        9.53272       54.69509160        1.12710836
        9.63241       53.58541130        1.14710440
        9.73210       54.67021664        1.15637923
        9.83180       54.88046581        1.20726260
        9.93149       56.56821804        1.21698460
       10.03118       54.15002604        1.14557216
       10.13088       54.28429271        1.11951258
       10.23057       55.36904236        1.18405852
       10.33026       55.06624340        1.22056041
       10.42996       56.38932683        1.21827038
       10.52965       54.16157327        1.15620619
       10.62934       58.49107316        1.20460020
       10.72904       57.52952399        1.21228491
       10.82873       56.40344272        1.19426540
       10.92842       57.35149506        1.22448704
       11.02812       56.60065229        1.15888997
       11.12781       56.41300499        1.19845980
       11.22750       58.31214682        1.23068763
       11.32720       58.41838601        1.26494560
       11.42689       56.18248727        1.19736886
       11.52658       55.72339082        1.17823602
       11.62628       59.03370970        1.22603014
       11.72597       57.74427613        1.23826485
       11.82567       56.18146530        1.25528881
       11.92536       59.34686900        1.20749800
       12.02505       60.33298465        1.22319968
       12.12475       64.28118770        1.26161570
       12.22444       64.70760104        1.34222023
       12.32413       68.69323054        1.40415242
       12.42383       74.99057140        1.39270993
       12.52352       81.42598960        1.44237935
       12.62321       88.14220647        1.54328282
       12.72291      100.92999757        1.60719600
       12.82260      114.47633906        1.86076381
       12.92229      118.36861311        1.71797694
       13.02199      146.34861738        1.89596057
       13.12168      173.62923276        2.10166364
       13.22137      209.33161444        2.38375962
       13.32107      246.04785028        2.66908786
       13.42076      280.08925242        2.74256455
       13.52045      319.10253627        2.96495056
       13.62015      328.80330150        2.91734544
       13.71984      328.92905980        3.04198940
       13.81953      316.32480542        3.03453361
       13.91923      288.15885181        2.72072634
       14.01892      229.56942920        2.36304215
       14.11861      176.44040598        2.16037628
       14.21831      141.05845179        1.93305846
       14.31800      114.07272370        1.82958254
       14.41769       90.30258621        1.56716136
       14.51739       74.43998684        1.38782564
       14.61708       65.47692770        1.30468714
       14.71677       59.20137979        1.26067169
       14.81647       54.27866443        1.26438162
       14.91616       54.06468890        1.16046383
       15.01585       51.94767659        1.15794435
       15.11555       52.86432885        1.18169437
       15.21524       52.17101827        1.20987515
       15.31493       52.34564569        1.24113082
       15.41463       49.56105955        1.16918195
       15.51432       52.14667241        1.16223874
       15.61402       48.93154419        1.15421745
       15.71371       48.42496124        1.14031973
       15.81340       48.72027074        1.18989047
       15.91310       49.44231985        1.16473023
       16.01279       49.36770793        1.11437296
       16.11248       49.95446109        1.15110210
       16.21218       51.12874894        1.19687500
       16.31187       48.69987180        1.17085609
       16.41156       50.57821672        1.17108145
       16.51126       53.69442082        1.22715526
       16.61095       49.44359284        1.13528467
       16.71064       50.25618467        1.18079648
       16.81034       52.21443701        1.20730747
       16.91003       54.36577322        1.19649085
       17.00972       56.93109033        1.17551804
       17.10942       59.70747147        1.27250574
       17.20911       60.70586575        1.29446159
       17.30880       66.16584011        1.36339262
       17.40850       71.02713720        1.41246856
       17.50819       76.13942913        1.42024391
       17.60788       77.89854558        1.48123878
       17.70758       73.67138091        1.44620720
       17.80727       75.46661752        1.48188733
       17.90696       72.75890841        1.36032470
       18.00666       70.53842477        1.36282777
       18.10635       64.31480901        1.26549897
       18.20604       59.67282410        1.33704158
       18.30574       57.72343883        1.25322581
       18.40543       57.88475999        1.22393700
       18.50512       56.62932708        1.24874499
       18.60482       53.66061909        1.19638301
       18.70451       54.57940121        1.27510927
       18.80420       52.16920290        1.17102826
       18.90390       51.13729522        1.14697058
       19.00359       50.69603537        1.11214184
       19.10328       50.44081229        1.17365709
       19.20298       49.60981948        1.20013189
       19.30267       48.15478491        1.13542554
       19.40237       48.25479454        1.12374414
       19.50206       46.55557079        1.13146461
       19.60175       47.23695355        1.12696189
       19.70145       48.64457517        1.19926170
       19.80114       46.77417575        1.11527257
       19.90083       47.75043195        1.08880762
       20.00053       47.34779231        1.10342948
       20.10022       47.84938024        1.11751715
       20.19991       47.79650960        1.19408772
       20.29961       50.46307180        1.16264599
       20.39930       52.67229583        1.22380147
       20.49899       53.64829364        1.21367241
       20.59869       54.04750298        1.24046995
       20.69838       53.76030818        1.28277870
       20.79807       54.90181504        1.23648527
       20.89777       56.19340508        1.22270052
       20.99746       57.33195945        1.24735504
       21.09715       58.43866076        1.32653475
       21.19685       58.07155694        1.31545228
       21.29654       61.90716845        1.32509590
       21.39623       57.00255113        1.27136908
       21.49593       57.60627888        1.25984339
       21.59562       56.83934249        1.28152898
       21.69531       54.14979537        1.30091728
       21.79501       50.63324186        1.15064614
       21.89470       49.31893294        1.11000942
       21.99439       47.31458010        1.13323522
       22.09409       44.43567454        1.10082721
       22.19378       46.96132832        1.20194034
       22.29347       45.73570154        1.10466832
       22.39317       45.49257379        1.13025961
       22.49286       47.00183163        1.14799821
       22.59255       47.72986562        1.17048759
       22.69225       46.08577396        1.21196109
       22.79194       47.46284505        1.10464974
       22.89163       45.39202060        1.05908367
       22.99133       46.45280265        1.10113912
       23.09102       47.68291865        1.15867280
       23.19072       48.69519898        1.17371096
       23.29041       47.13897366        1.14036268
       23.39010       49.46865476        1.18053740
       23.48980       47.24869263        1.15784243
       23.58949       46.10139386        1.15898874
       23.68918       47.47871925        1.23688260
       23.78888       46.34411667        1.08901496
       23.88857       46.03316968        1.09954614
       23.98826       47.26164397        1.13905700
       24.08796       44.53651968        1.08408202
       24.18765       45.24077615        1.17077908
       24.28734       46.55069565        1.13077118
       24.38704       45.26542001        1.13363644
       24.48673       47.02098669        1.15135011
       24.58642       44.95806193        1.16297686
       24.68612       45.30206348        1.16588939
       24.78581       47.12287356        1.09620853
       24.88550       45.54873031        1.07724431
       24.98520       45.41530057        1.11544908
       25.08489       48.66461930        1.17785354
       25.18458       48.78675820        1.20410919
       25.28428       48.09260072        1.15223139
       25.38397       51.05520743        1.18154763
       25.48366       51.63603952        1.19538251
       25.58336       51.89077140        1.24902349
       25.68305       61.55445310        1.33464220
       25.78274       66.19302455        1.30637936
       25.88244       78.47542239        1.45875239
       25.98213      101.65132025        1.67472589
       26.08182      130.78681694        1.95075430
       26.18152      157.82764227        2.19593922
       26.28121      184.72414028        2.24832629
       26.38090      199.40733692        2.35620935
       26.48060      196.54036193        2.40340709
       26.58029      182.89512674        2.41798822
       26.67998      161.96868398        2.14835504
       26.77968      133.44767281        1.92592935
       26.87937       98.30223182        1.62812145
       26.97907       81.30969018        1.46804883
       27.07876       72.50983307        1.49256464
       27.17845       74.65439962        1.44749020
       27.27815       79.10393234        1.45530625
       27.37784       82.15232647        1.54099464
       27.47753       85.04353183        1.54485406
       27.57723       86.42819677        1.63151465
       27.67692       85.38709645        1.58283432
       27.77661       80.69961815        1.46852925
       27.87631       72.32937664        1.36689376
       27.97600       66.00530923        1.33501357
       28.07569       58.23896575        1.32693415
       28.17539       53.28857994        1.21494911
       28.27508       51.92553322        1.19979768
       28.37477       50.56787352        1.21213382
       28.47447       53.35813444        1.23552380
       28.57416       52.08207801        1.31962185
       28.67385       54.20896899        1.19786285
       28.77355       54.39866765        1.17830470
       28.87324       60.70274929        1.27813641
       28.97293       59.03945789        1.26336742
       29.07263       59.40939707        1.38145879
       29.17232       58.56745904        1.25169997
       29.27201       58.72470810        1.27654838
       29.37171       54.93269877        1.26992967
       29.47140       55.94746787        1.26686832
       29.57109       52.22100462        1.29771427
       29.67079       46.49732998        1.11458062
       29.77048       50.40490533        1.16332313
       29.87017       47.43579431        1.10627393
       29.96987       49.76648300        1.18821194
       30.06956       49.19571812        1.21878308
       30.16925       48.99727483        1.14523429
       30.26895       49.95206902        1.16079528
       30.36864       51.90901170        1.20273501
       30.46833       53.56708509        1.23424357
       30.56803       55.14715711        1.32292876
       30.66772       59.20186461        1.27570993
       30.76742       62.83758866        1.28813892
       30.86711       65.36927668        1.34011752
       30.96680       64.21633438        1.33586114
       31.06650       64.65932806        1.40556642
       31.16619       64.51150096        1.32005634
       31.26588       62.00301938        1.28625751
       31.36558       59.32324450        1.27451625
       31.46527       60.49328995        1.33922046
       31.56496       63.11997255        1.39007981
       31.66466       64.41632304        1.31331369
       31.76435       74.89781991        1.41514648
       31.86404       82.59396891        1.46685356
       31.96374       86.70868364        1.53795196
       32.06343       89.33958899        1.61562555
       32.16312       85.12575658        1.48189291
       32.26282       79.60367286        1.46781175
       32.36251       71.61941837        1.44763654
       32.46220       66.98204221        1.42493835
       32.56190       60.75671040        1.38092770
       32.66159       58.00751960        1.28128193
       32.76128       53.66595659        1.20457677
       32.86098       54.46758153        1.23180293
       32.96067       54.55274182        1.24821564
       33.06036       53.75390169        1.26161710
       33.16006       54.00002426        1.19086542
       33.25975       55.65518908        1.24832771
       33.35944       54.59018747        1.24297971
       33.45914       57.69300267        1.32656481
       33.55883       59.28636229        1.34797994
       33.65852       63.23589027        1.29833603
       33.75822       67.04922894        1.33471997
       33.85791       74.75086861        1.41531388
       33.95760       81.65267286        1.52311021
       34.05730       94.78707093        1.62563042
       34.15699       99.19995558        1.63654878
       34.25668      114.19123595        1.75017136
       34.35638      139.71080466        1.98674590
       34.45607      178.29982994        2.36520066
       34.55577      223.16065869        2.52279744
       34.65546      289.85134701        2.75939734
       34.75515      382.95411856        3.23648260
       34.85485      443.90151285        3.45993700
       34.95454      470.11436999        3.67356366
       35.05423      448.42685444        3.70906679
       35.15393      394.70187067        3.26561046
       35.25362      299.04056817        2.88255659
       35.35331      216.42709927        2.51352140
       35.45301      159.63349282        2.25141981
       35.55270      118.11871029        1.88493585
       35.65239       92.49174912        1.61057343
       35.75209       83.25224446        1.51684130
       35.85178       76.96886500        1.45638195
       35.95147       72.73008477        1.44891324
       36.05117       67.99025246        1.37189555
       36.15086       63.69508620        1.27661972
       36.25055       61.32023952        1.30858355
       36.35025       55.52206095        1.26932311
       36.44994       54.89516414        1.28734853
       36.54963       54.05207083        1.22624296
       36.64933       52.98274466        1.19589403
       36.74902       54.01271049        1.22012501
       36.84871       51.99679263        1.18841856
       36.94841       52.28537207        1.28877830
       37.04810       52.14914336        1.13489096
       37.14779       51.41279298        1.14992719
       37.24749       52.69653087        1.19663405
       37.34718       51.29763051        1.21070183
       37.44687       49.35674619        1.27560545
       37.54657       49.69742561        1.16857037
       37.64626       49.65701318        1.16361464
       37.74595       49.47541560        1.14331734
       37.84565       48.99947496        1.20388010
       37.94534       47.36223587        1.20571507
       38.04503       50.28119060        1.12295118
       38.14473       49.88910436        1.12951037
       38.24442       50.08119571        1.15237362
       38.34412       49.98915298        1.20367903
       38.44381       48.04316526        1.27585628
       38.54350       49.44353863        1.15382643
       38.64320       49.92928490        1.15598573
       38.74289       53.29206322        1.21004306
       38.84258       56.98788485        1.25448741
       38.94228       59.12229612        1.34030601
       39.04197       59.69370618        1.21440772
       39.14166       66.02352694        1.32886023
       39.24136       73.85532176        1.40204077
       39.34105       74.84656387        1.46066863
       39.44074       73.69517955        1.58087305
       39.54044       72.09303662        1.39798315
       39.64013       71.82909912        1.39115505
       39.73982       66.77308857        1.34650915
       39.83952       61.72334258        1.28563206
       39.93921       59.77828509        1.34145063
       40.03890       57.67083523        1.20599282
       40.13860       56.54759376        1.19260301
       40.23829       56.32628923        1.23236713
       40.33798       54.90399576        1.25457368
       40.43768       54.84085661        1.31186784
       40.53737       55.70213941        1.22714342
       40.63706       57.34250049        1.27129657
       40.73676       61.67990575        1.31660797
       40.83645       62.31131979        1.33440594
       40.93614       62.94188447        1.36363674
       41.03584       64.35170716        1.29761404
       41.13553       74.45980062        1.39776695
       41.23522       87.45136288        1.55201790
       41.33492      105.87370507        1.78823259
       41.43461      121.72614215        1.97920257
       41.53430      146.19130473        2.03203690
       41.63400      170.45127041        2.24287445
       41.73369      189.56505438        2.31435785
       41.83338      199.93267777        2.44081626
       41.93308      204.71303947        2.44815552
       42.03277      205.54644456        2.24203011
       42.13247      214.23122228        2.40539157
       42.23216      252.55779901        2.61728703
       42.33185      324.32644686        3.18681119
       42.43155      416.62078094        3.56381543
       42.53124      523.80108001        3.87644429
       42.63093      609.34152128        4.19550409
       42.73063      652.01836906        4.36339872
       42.83032      625.37990259        4.34671044
       42.93001      558.33721491        3.94792066
       43.02971      433.00632591        3.27668605
       43.12940      305.03291821        2.79996901
       43.22909      206.50813745        2.41808377
       43.32879      143.82987276        2.12447202
       43.42848      109.38218189        1.81171874
       43.52817       85.46497845        1.53206503
       43.62787       72.54393317        1.40678156
       43.72756       67.45201863        1.38867025
       43.82725       64.58213380        1.41885886
       43.92695       59.51987944        1.23503556
       44.02664       57.91930828        1.21245852
       44.12633       57.10150778        1.24872134
       44.22603       56.75176862        1.29574886
       44.32572       56.41257960        1.36156656
       44.42541       55.93478584        1.29442006
       44.52511       54.07798160        1.23843927
       44.62480       58.19336235        1.30304805
       44.72449       57.81151673        1.25858657
       44.82419       65.07477960        1.49872059
       44.92388       67.86665436        1.27655040
       45.02357       71.62585438        1.32222089
       45.12327       81.47008104        1.45273466
       45.22296       90.60438064        1.57242599
       45.32265      108.86173179        1.90713764
       45.42235      128.88961438        1.88997287
       45.52204      165.36170255        2.12076666
       45.62174      214.18115325        2.46030499
       45.72143      262.05065094        2.72463961
       45.82112      294.59085804        3.16529270
       45.92082      315.26923057        2.78175853
       46.02051      306.79284949        2.80199104
       46.12020      264.69028464        2.60769654
       46.21990      214.82960040        2.46505148
       46.31959      173.15658869        2.38715371
       46.41928      131.36584261        1.91838900
       46.51898       94.15296818        1.63176643
       46.61867       75.44581754        1.45299770
       46.71836       63.91511656        1.37161547
       46.81806       63.78851541        1.42112885
       46.91775       58.76705333        1.18893399
       47.01744       57.16818205        1.20060714
       47.11714       59.40077379        1.25187435
       47.21683       62.52955947        1.32232717
       47.31652       66.74819637        1.49055575
       47.41622       73.17201177        1.47082676
       47.51591       89.01475424        1.62576683
       47.61560      101.48493658        1.72162148
       47.71530      128.24178058        1.95740238
       47.81499      150.45256907        2.17453754
       47.91468      190.27720412        2.14167913
       48.01438      213.49697960        2.27099654
       48.11407      225.12188481        2.42001914
       48.21376      217.99445220        2.48574699
       48.31346      198.81324258        2.45703137
       48.41315      161.73931529        2.06342364
       48.51284      128.91245514        1.90182617
       48.61254      100.93865372        1.67493893
       48.71223       80.08449759        1.51834226
       48.81192       68.19007104        1.39748831
       48.91162       59.51016950        1.17018991
       49.01131       55.20398911        1.16653543
       49.11100       52.98862505        1.18404310
       49.21070       51.68515932        1.22769144
       49.31039       52.09885190        1.26859472
       49.41009       50.90198193        1.18453420
       49.50978       50.03806537        1.19870512
       49.60947       49.73909260        1.20385455
       49.70917       48.90858545        1.23799005
       49.80886       48.67263383        1.20195108
       49.90855       51.41067335        1.12538400
       50.00825       50.44417227        1.13826209
       50.10794       50.99616185        1.17054208
       50.20763       51.84281053        1.23309242
       50.30733       51.87699534        1.29207686
       50.40702       52.94821469        1.22415852
       50.50671       54.87576374        1.24998652
       50.60641       54.88037461        1.25180990
       50.70610       55.71090272        1.29781401
       50.80579       55.44298199        1.27759240
       50.90549       56.29531445        1.16071268
       51.00518       54.56049927        1.15274871
       51.10487       55.94387487        1.20665732
       51.20457       55.78134020        1.28272016
       51.30426       54.75112715        1.26416330
       51.40395       56.49729277        1.23116747
       51.50365       58.11592340        1.26301264
       51.60334       59.54514880        1.30376270
       51.70303       61.03523079        1.40181293
       51.80273       61.04079202        1.28590004
       51.90242       59.74116292        1.18851580
       52.00211       60.50407068        1.20176908
       52.10181       62.67496022        1.26194805
       52.20150       61.44272875        1.37595981
       52.30119       63.93685162        1.35221396
       52.40089       62.20991664        1.31286146
       52.50058       64.05847365        1.35748083
       52.60027       60.85755900        1.34105115
       52.69997       55.84665155        1.40761843
       52.79966       56.10894008        1.18621536
       52.89935       58.14583483        1.16522962
       52.99905       66.11501927        1.26311557
       53.09874       74.87202361        1.38778375
       53.19844       85.23395549        1.69598034
       53.29813      102.62697274        1.65454721
       53.39782      121.07831898        1.85994736
       53.49752      145.85092037        2.05204743
       53.59721      163.18051185        2.16986854
       53.69690      171.71414781        2.44285296
       53.79660      177.28469440        2.07955918
       53.89629      169.88409887        2.01321787
       53.99598      153.15810239        1.95724193
       54.09568      138.09340349        1.93997957
       54.19537      119.52213270        1.96735322
       54.29506      105.22017938        1.69519103
       54.39476       95.44747450        1.62670765
       54.49445       88.73425409        1.56934906
       54.59414       83.04766778        1.54113120
       54.69384       83.16299402        1.64527833
       54.79353       78.30045888        1.36880887
       54.89322       78.40957681        1.36486256
       54.99292       72.69432932        1.35242181
       55.09261       70.16394724        1.38166162
       55.19230       65.93251833        1.43814104
       55.29200       63.76090266        1.31624918
       55.39169       62.16555834        1.34099994
       55.49138       58.27298305        1.29336717
       55.59108       57.91569463        1.33074479
       55.69077       54.82042547        1.32856573
       55.79046       54.57251499        1.15890034
       55.89016       55.21751576        1.16297020
       55.98985       53.11066103        1.14779343
       56.08954       57.87885787        1.23789959
       56.18924       61.22858805        1.37420397
       56.28893       67.76281467        1.32335763
       56.38862       74.55410724        1.43603970
       56.48832       86.41295725        1.57310066
       56.58801       99.93795820        1.74126838
       56.68770      106.15878041        1.85249839
       56.78740      116.88794779        1.66417261
       56.88709      115.61106169        1.67150688
       56.98679      113.08701401        1.65459018
       57.08648      105.93013118        1.69730854
       57.18617       96.78905270        1.67956167
       57.28587       86.03689303        1.47912739
       57.38556       74.69955437        1.46668862
       57.48525       63.92559599        1.38242844
       57.58495       63.20281651        1.40610980
       57.68464       60.15722908        1.38365502
       57.78433       54.71542125        1.15416430
       57.88403       52.27942006        1.14123400
       57.98372       51.96565757        1.15590949
       58.08341       53.58276087        1.26917604
       58.18311       50.85672580        1.26470593
       58.28280       51.32057021        1.19665210
       58.38249       53.04691883        1.27132295
       58.48219       52.33055375        1.28994324
       58.58188       50.19226578        1.27703385
       58.68157       50.87978915        1.25995655
       58.78127       52.30338314        1.11745505
       58.88096       51.52553692        1.09271989
       58.98065       55.15813565        1.17378207
       59.08035       54.74283498        1.24774168
       59.18004       58.59692795        1.30968869
       59.27973       61.51791132        1.26621956
       59.37943       63.61454561        1.33014447
       59.47912       65.02362638        1.39996217
       59.57881       70.19668554        1.52403978
       59.67851       77.87729940        1.49693797
       59.77820       81.93328220        1.41160594
       59.87789       87.94553170        1.45747344
       59.97759       95.31495315        1.58750718
       60.07728      103.89733417        1.79530620
       60.17697      106.66885723        1.73303915
       60.27667      104.23371941        1.66542272
       60.37636      107.10281364        1.72110832
       60.47605      104.52684592        1.77366395
       60.57575       98.59549910        1.88755912
       60.67544       95.23077998        1.59364319
       60.77514       88.33323428        1.45889383
       60.87483       76.82278591        1.33368571
       60.97452       72.33648804        1.36324145
       61.07422       70.12193065        1.50773444
       61.17391       67.09987585        1.27747072
       61.27360       66.32707944        1.31515866
       61.37330       67.07654207        1.37165442
       61.47299       67.45196690        1.43595664
       61.57268       65.93453425        1.61437931
       61.67238       69.65864369        1.35258018
       61.77207       70.14099571        1.32188908
       61.87176       68.96763330        1.29612786
       61.97146       69.57287913        1.35157835
       62.07115       68.63413731        1.52034092
       62.17084       65.81656751        1.30425029
       62.27054       63.56644260        1.33636846
       62.37023       63.22647519        1.38586859
       62.46992       57.85246739        1.37084004
       62.56962       61.49716385        1.58762058
       62.66931       57.25665323        1.23390612
       62.76900       57.09225071        1.20091117
       62.86870       61.09328623        1.21529576
       62.96839       69.48712060        1.33776588
       63.06808       74.06618725        1.53716612
       63.16778       84.87041254        1.46111213
       63.26747       98.77082067        1.63181875
       63.36716      116.53070892        1.84045550
       63.46686      139.07442943        2.07244143
       63.56655      153.09605507        2.31104146
       63.66624      176.35873717        2.10979005
       63.76594      194.25303363        2.15195069
       63.86563      207.58237556        2.21845013
       63.96532      207.57885242        2.32116979
       64.06502      199.15440773        2.43489999
       64.16471      180.69579927        2.14397635
       64.26440      155.01436195        2.06558989
       64.36410      133.04598163        1.95109656
       64.46379      111.38420395        1.88687149
       64.56349       98.07145697        1.80146967
       64.66318       80.38991386        1.42691471
       64.76287       70.96588185        1.32391047
       64.86257       63.34986540        1.24875713
       64.96226       60.81595686        1.28157193
       65.06195       59.24663849        1.36775223
       65.16165       53.35206310        1.17061110
       65.26134       54.41583694        1.20995124
       65.36103       52.86960587        1.24442430
       65.46073       51.96643964        1.27424447
       65.56042       51.91798578        1.33024742
       65.66011       55.50233331        1.19944269
       65.75981       58.27527285        1.21686304
       65.85950       59.26238958        1.21933169
       65.95919       59.40975648        1.27796549
       66.05889       64.20749806        1.37441350
       66.15858       68.41893083        1.34929541
       66.25827       80.94939315        1.51839568
       66.35797       89.85756187        1.66686326
       66.45766      105.33447119        1.91832709
       66.55735      121.34141162        2.05919068
       66.65705      140.75598559        1.96823823
       66.75674      151.42450331        1.98965671
       66.85643      162.72156303        2.03950948
       66.95613      172.58552075        2.18436782
       67.05582      173.20982554        2.20463995
       67.15551      167.48080689        2.06256661
       67.25521      159.11621003        2.10972272
       67.35490      141.35561183        2.09241996
       67.45459      122.75444313        2.05554472
       67.55429      109.55146277        1.86010961
       67.65398       91.64012955        1.52438477
       67.75367       78.30383781        1.39720156
       67.85337       74.17396230        1.37654790
       67.95306       73.94904044        1.46977273
       68.05275       77.31403756        1.42319571
       68.15245       87.39358158        1.50056283
       68.25214       99.46217996        1.69967155
       68.35184      102.70936650        1.80007463
       68.45153      114.99798993        2.09753756
       68.55122      117.12854350        1.82357892
       68.65092      131.62050146        1.80252436
       68.75061      129.67320188        1.80732321
       68.85030      131.03839629        1.85181335
       68.95000      127.78541764        2.07306964
       69.04969      119.25078211        1.69084431
       69.14938      102.39051512        1.61030766
       69.24908       88.55918096        1.59878739
       69.34877       78.96405180        1.56111400
       69.44846       70.82225372        1.71457812
       69.54816       64.16506057        1.27227035
       69.64785       59.82485714        1.21112202
       69.74754       56.50632019        1.18882007
       69.84724       51.55864703        1.16502749
       69.94693       50.54597501        1.30180123
       70.04662       48.02183793        1.04336930
       70.14632       46.57533304        1.06844313
       70.24601       46.74328111        1.14608462
       70.34570       49.77570501        1.25163230
       70.44540       46.92680245        1.43175032
       70.54509       47.48029547        1.12729139
       70.64478       47.70042102        1.12830334
       70.74448       49.38822909        1.16635840
       70.84417       48.40781277        1.19819627
       70.94386       48.74004596        1.31980483
       71.04356       51.92862765        1.12741968
       71.14325       50.62203827        1.15670198
       71.24294       54.19517071        1.25941536
       71.34264       54.83175418        1.34326353
       71.44233       53.85285787        1.48544550
       71.54202       55.73344525        1.23035443
       71.64172       55.93825997        1.19902928
       71.74141       54.16626205        1.15840210
       71.84110       53.04618741        1.18661877
       71.94080       51.97071356        1.27982072
       72.04049       51.83806889        1.08185350
       72.14019       51.71009805        1.12579066
       72.23988       52.28861457        1.18452232
       72.33957       51.31800111        1.31073619
       72.43927       53.92069014        1.47913003
       72.53896       54.04733683        1.18733998
       72.63865       53.06478761        1.14993346
       72.73835       55.89346925        1.15434390
       72.83804       55.97688655        1.21985751
       72.93773       61.13532874        1.35439130
       73.03743       63.79354001        1.20102439
       73.13712       65.46559662        1.28313759
       73.23681       68.71773467        1.38128794
       73.33651       71.03844786        1.54548167
       73.43620       68.22122670        1.64028432
       73.53589       70.50236963        1.34524837
       73.63559       68.99104197        1.30978495
       73.73528       68.50275840        1.29918935
       73.83497       66.64522532        1.35846310
       73.93467       64.87047407        1.41120223
       74.03436       62.02847485        1.22112335
       74.13405       59.09857966        1.24248220
       74.23375       54.66922085        1.24458455
       74.33344       56.51398529        1.39313228
       74.43313       55.93661250        1.43816692
       74.53283       57.47981262        1.23873086
       74.63252       56.04935069        1.21429231
       74.73221       55.15801614        1.19866444
       74.83191       58.94850888        1.31466420
       74.93160       61.27478450        1.35554574
       75.03129       66.87537051        1.25920494
       75.13099       72.86261759        1.36165218
       75.23068       81.76085022        1.50492303
       75.33037       94.42969166        1.77845754
       75.43007      104.55501093        1.89893604
       75.52976      122.73625559        1.78804086
       75.62945      139.39560073        1.90479106
       75.72915      158.35883844        2.02334194
       75.82884      164.73567703        2.22223262
       75.92854      164.18600143        2.08248329
       76.02823      173.06375558        2.00571272
       76.12792      174.46424685        2.10487165
       76.22762      168.52344358        2.18213223
       76.32731      165.86888158        2.44474468
       76.42700      151.99316582        2.20771022
       76.52670      137.10605774        1.93342067
       76.62639      123.13155456        1.80826154
       76.72608      106.40188160        1.65216183
       76.82578      100.49010319        1.84978228
       76.92547       93.38363203        1.42795752
       77.02516       97.55770627        1.51295785
       77.12486      107.21982056        1.66673469
       77.22455      119.30646007        1.87281213
       77.32424      128.31795905        2.38680693
       77.42394      138.99430040        1.98419481
       77.52363      150.66466945        1.99703416
       77.62332      160.99471409        2.05559895
       77.72302      174.38540455        2.14515206
       77.82271      174.97328178        2.51996119
       77.92240      178.92925866        1.95157809
       78.02210      179.24472683        2.10770762
       78.12179      172.46806015        2.20768238
       78.22148      154.88388634        2.21103428
       78.32118      141.40822817        2.45035356
       78.42087      123.85298527        1.80376603
       78.52056      112.67827651        1.77607922
       78.62026       94.15650728        1.60985729
       78.71995       79.49461244        1.48349375
       78.81964       74.61503900        1.60518559
       78.91934       64.98499364        1.16042958
       79.01903       60.95152261        1.23201308
       79.11872       56.08934146        1.22980390
       79.21842       58.14492304        1.33587117
       79.31811       55.92030534        1.47558497
       79.41780       55.66987873        1.19431206
       79.51750       55.87929074        1.21584127
       79.61719       57.75412037        1.23978902
       79.71689       58.80369215        1.29888589
       79.81658       62.05110659        1.41454821
       79.91627       62.35429963        1.20198186
       80.01597       60.77013809        1.21959932
       80.11566       62.43074632        1.29230160
       80.21535       63.24810664        1.39046266
       80.31505       63.75911638        1.65961963
       80.41474       67.13654545        1.30877421
       80.51443       65.93845004        1.29130688
       80.61413       71.04755080        1.38509405
       80.71382       69.65170870        1.41859559
       80.81351       72.03927493        1.62123555
       80.91321       73.40530968        1.20681164
       81.01290       84.23047364        1.39589472
       81.11259       93.28784532        1.58578593
       81.21229      107.47095960        1.84152321
       81.31198      117.57428969        2.14889510
       81.41167      140.59586922        1.84081772
       81.51137      165.15249715        2.05351334
       81.61106      186.73946563        2.28111637
       81.71075      214.29578399        2.53091758
       81.81045      229.08302013        2.77314603
       81.91014      262.82024373        2.28599870
       82.00983      296.62339538        2.59814580
       82.10953      324.88755314        3.04426689
       82.20922      349.89045767        3.51613365
       82.30891      357.90844063        3.72967202
       82.40861      374.20690567        3.10291029
       82.50830      370.29673411        3.07826144
       82.60799      365.24658006        3.29268257
       82.70769      355.23463775        3.53266004
       82.80738      347.21820993        3.33612495
       82.90707      327.98291081        2.63133815
       83.00677      307.50591400        2.71322991
       83.10646      271.96802199        2.99919663
       83.20615      259.23834782        3.25847954
       83.30585      229.50793418        2.90210484
       83.40554      199.71329128        2.24905375
       83.50524      167.02535349        2.00529671
       83.60493      135.04418215        1.98483060
       83.70462      117.45553078        2.08655533
       83.80432      108.53415078        1.75273634
       83.90401       91.09921664        1.34662106
       84.00370       74.92500596        1.27338113
       84.10340       67.37282230        1.44281991
       84.20309       68.76611274        1.76991827
       84.30278       63.76413721        1.38595330
       84.40248       63.04481576        1.21631697
       84.50217       61.21241501        1.17574492
       84.60186       61.46362416        1.33222283
       84.70156       62.82208151        1.76257711
       84.80125       63.09947985        1.22985595
       84.90094       63.02248863        1.10412454
       85.00064       61.40139088        1.12278768
       85.10033       62.49815469        1.34065828
       85.20002       61.13844569        2.27410545
       85.29972       66.88404317        1.25496095
       85.39941       63.96159952        1.25109648
       85.49910       67.40429392        1.24912415
       85.59880       67.07855963        1.40118121
       85.69849       65.38149111        2.48343144
       85.79818       65.12499463        1.16854004
       85.89788       64.53826136        1.13544675
       85.99757       66.64776929        1.18567626
       86.09726       67.30818587        1.36809145
       86.19696       66.35805760        2.60892825
       86.29665       66.21732763        1.23330230
       86.39634       63.69749859        1.23049216
       86.49604       65.66680724        1.23055965
       86.59573       59.23564443        1.24500403
       86.69542       65.84235493        2.74501657
       86.79512       59.17591542        1.08000324
       86.89481       57.44874560        1.04906625
       86.99451       58.89298932        1.10104203
       87.09420       55.10668203        1.18767324
       87.19389       58.94696967        2.91010786
       87.29359       54.69512631        1.13588748
       87.39328       52.27910662        1.12542451
       87.49297       50.03993836        1.06879301
       87.59267       49.51718965        1.08408263
       87.69236       46.12690711        3.13050024
       87.79205       49.52929805        1.01063623
       87.89175       50.26724237        1.00996663
       87.99144       52.26363760        1.07316971
       88.09113       50.78325616        1.12432113
       88.19083       42.33841046        5.43082343
       88.29052       50.48248441        1.12803855
       88.39021       49.62728597        1.12586404
       88.48991       49.38748269        1.07788813
       88.58960       49.03398736        1.04008608
       88.68929       53.54520848        8.42102647
       88.78899       49.62916191        1.01002282
       88.88868       49.66770048        0.98834840
       88.98837       48.70522708        1.01793029
       89.08807       48.41692811        1.03953881
       89.18776       49.09792957        8.51774786
       89.28745       49.61613720        1.06922768
       89.38715       50.21449057        1.08672708
       89.48684       52.99056416        1.09258260
       89.58653       55.31314799        1.09367968
       89.68623       69.33817359        9.93176279
       89.78592       59.33849271        1.10084842
       89.88561       63.06938290        1.11279211
       89.98531       69.19299255        1.19541289
       90.08500       75.40983120        1.29457959
       90.18469       72.55676456       10.58964491
       90.28439       79.98975653        1.36191637
       90.38408       89.03110773        1.46137666
       90.48377       96.68082233        1.49463499
       90.58347      101.14486319        1.50491900
       90.68316       93.11281677       11.24428395
       90.78286      101.66375084        1.44425533
       90.88255      104.36153768        1.42396198
       90.98224      105.81709725        1.48358478
       91.08194      102.76506348        1.50983718
       91.18163       96.84174680       11.69324294
       91.28132      105.40058493        1.57447697
       91.38102       99.23358514        1.56792503
       91.48071       92.59153895        1.47703488
       91.58040       87.85112505        1.39120300
       91.68010       70.71784249        9.43729327
       91.77979       74.52420661        1.22947053
       91.87948       70.84800248        1.18010218
       91.97918       65.64398970        1.17934878
       92.07887       63.59311675        1.20907943
       92.17856       57.67199647        8.75283969
       92.27826       64.62946765        1.25891413
       92.37795       60.43924832        1.24611589
       92.47764       62.30817879        1.20116802
       92.57734       69.31495332        1.22933347
       92.67703       75.53112245        8.33188063
       92.77672       73.33116857        1.21884219
       92.87642       84.90960584        1.28701866
       92.97611       93.06401370        1.40735955
       93.07580       99.44125430        1.66073811
       93.17550       96.16695672        3.07064581
       93.27519      101.20461421        1.54434734
       93.37488      102.76728348        1.51284328
       93.47458      109.57470757        1.57969920
       93.57427      114.57297468        1.86784660
       93.67396      110.53326437        2.47898365
       93.77366      112.15491589        1.54699886
       93.87335      109.13602052        1.45750862
       93.97304      106.50680126        1.50036572
       94.07274       99.75533996        1.88472429
       94.17243       98.52727778        2.13713756
       94.27212       92.27468427        1.54010052
       94.37182       86.25067110        1.45085114
       94.47151       78.43498975        1.32463493
       94.57121       74.38033676        1.70217732
       94.67090       70.45286012        1.67558230
       94.77059       70.58690763        1.30379552
       94.87029       66.44594699        1.15012384
       94.96998       62.54681898        1.12985403
       95.06967       60.92319580        1.28539286
       95.16937       62.06782686        1.77610479
       95.26906       60.79576500        1.35789413
       95.36875       58.86161512        1.21231130
       95.46845       60.25070174        1.17881107
       95.56814       58.79422313        1.33988670
       95.66783       56.87306627        1.48040391
       95.76753       56.20207413        1.21608754
       95.86722       55.21222072        1.02524069
       95.96691       55.96929094        1.07072803
       96.06661       53.70947540        1.34354215
       96.16630       53.52235821        1.43024333
       96.26599       51.46798879        1.25946832
       96.36569       52.47121908        1.14109618
       96.46538       51.54271933        1.09143584
       96.56507       47.66662318        1.29529708
       96.66477       47.25814393        1.25673651
       96.76446       47.54823545        1.12649600
       96.86415       48.07643354        0.98118735
       96.96385       46.95029128        1.00143396
       97.06354       48.72489562        1.37958446
       97.16323       50.91187530        1.34848353
       97.26293       50.80658168        1.26558438
       97.36262       49.33222841        1.15478148
       97.46231       49.92780712        1.06879481
       97.56201       53.38544682        1.40623363
       97.66170       52.92083967        1.25753208
       97.76139       53.06446053        1.14400792
       97.86109       55.48400631        1.05787943
       97.96078       54.48953564        1.07121904
       98.06047       54.64845616        1.49007960
       98.16017       54.21109797        1.31929394
       98.25986       51.28482914        1.22555082
       98.35956       54.54426400        1.19336874
       98.45925       56.96774466        1.13845993
       98.55894       57.17369604        1.48776423
       98.65864       61.06757390        1.31945463
       98.75833       60.53835392        1.22747540
       98.85802       64.39609380        1.18222762
       98.95772       66.11583716        1.18998563
       99.05741       69.73812650        1.69685829
       99.15710       71.12961687        1.47385185
       99.25680       73.75388940        1.45411613
       99.35649       78.35541150        1.42771388
       99.45618       77.62881809        1.32428182
       99.55588       85.93575782        1.86229653
       99.65557       84.69828439        1.52520350
       99.75526       87.75644480        1.45525878
       99.85496       87.46892330        1.38279769
       99.95465       88.48420496        1.36356081
      100.05434       91.15546319        1.97178878
      100.15404       92.78879041        1.67573432
      100.25373       91.21909548        1.64151101
      100.35342       93.66073785        1.65697620
      100.45312       89.13770533        1.47479833
      100.55281       90.00359266        1.94645831
      100.65250       84.90445681        1.53985281
      100.75220       81.08323280        1.39368485
      100.85189       76.82036737        1.29599656
      100.95158       74.56440203        1.24261223
      101.05128       71.21840870        1.73118339
      101.15097       73.77260508        1.45634677
      101.25066       70.69262199        1.40837787
      101.35036       72.84234713        1.44213409
      101.45005       71.69165785        1.34532212
      101.54974       75.11256028        1.71536308
      101.64944       76.54311558        1.41285819
      101.74913       78.79701735        1.35078223
      101.84882       83.81809868        1.35636445
      101.94852       86.28474198        1.44974459
      102.04821       85.49106554        1.73807442
      102.14791       89.90554303        1.60658644
      102.24760       90.99026513        1.60266131
      102.34729       90.10177058        1.58825914
      102.44699       89.05796272        1.60642705
      102.54668       91.21276678        1.70605620
      102.64637       93.16853083        1.54007220
      102.74607       95.27028737        1.48327647
      102.84576       94.49307957        1.44912400
      102.94545       97.53665126        1.67702939
      103.04515       94.37132768        1.74610769
      103.14484       93.13006978        1.62056282
      103.24453       93.11737262        1.59545142
      103.34423       91.90598007        1.57214191
      103.44392       88.82429900        1.67401376
      103.54361       86.95466652        1.60890432
      103.64331       85.97712673        1.45622585
      103.74300       84.53894235        1.37730715
      103.84269       81.55983182        1.32926417
      103.94239       82.56096375        1.60723358
      104.04208       82.19593158        1.55143638
      104.14177       80.57333697        1.49435110
      104.24147       79.61889456        1.48466855
      104.34116       80.51042138        1.50227370
      104.44085       81.33076669        1.71493833
      104.54055       81.50743494        1.55438420
      104.64024       79.95335888        1.44703705
      104.73993       77.15705330        1.35635952
      104.83963       74.80948996        1.28662657
      104.93932       74.53446868        1.55688624
      105.03901       70.43196248        1.42582281
      105.13871       69.73656855        1.36606664
      105.23840       70.81932429        1.37589279
      105.33809       64.53240937        1.32086242
      105.43779       65.30419759        1.54608207
      105.53748       64.61949067        1.37919031
      105.63717       59.91481148        1.21709805
      105.73687       56.61764332        1.12584018
      105.83656       54.87242694        1.07993736
      105.93626       54.57537635        1.36482607
      106.03595       52.95170836        1.21836946
      106.13564       53.39237351        1.18248255
      106.23534       51.45310026        1.17502339
      106.33503       49.24156719        1.16101591
      106.43472       51.99665222        1.41059886
      106.53442       46.37934965        1.15854757
      106.63411       49.05032324        1.08240822
      106.73380       47.33670820        1.01339500
      106.83350       46.99160415        0.99460770
      106.93319       51.06501157        1.34424142
      107.03288       51.82863048        1.20028857
      107.13258       51.87493831        1.16556874
      107.23227       51.69162388        1.18038594
      107.33196       52.35291222        1.18467937
      107.43166       51.47377077        1.41139735
      107.53135       52.26209752        1.22707559
      107.63104       55.05830684        1.14694202
      107.73074       57.69587059        1.12654210
      107.83043       60.68777498        1.14089784
      107.93012       63.28687576        1.54137811
      108.02982       64.33979918        1.36033244
      108.12951       65.82845668        1.30856899
      108.22920       66.82318738        1.29732402
      108.32890       70.93947030        1.32413243
      108.42859       70.91770782        1.68027058
      108.52828       71.42503446        1.43040128
      108.62798       75.09616149        1.33011183
      108.72767       73.49744409        1.26295271
      108.82736       72.86579885        1.28519336
      108.92706       73.54025521        1.63524262
      109.02675       70.97937814        1.40530756
      109.12644       74.88275021        1.40900263
      109.22614       71.36768228        1.37644718
      109.32583       73.51700272        1.52243276
      109.42552       74.61314135        1.61787168
      109.52522       71.81087132        1.43182448
      109.62491       70.85747608        1.35279040
      109.72461       66.46205413        1.25239415
      109.82430       64.20352390        1.14975987
      109.92399       61.54021063        1.46342982
      110.02369       61.58237755        1.28197733
      110.12338       59.68854574        1.25380380
      110.22307       56.15320855        1.20685417
      110.32277       55.29549980        1.22290870
      110.42246       55.56775302        1.49058765
      110.52215       55.03845845        1.25642399
      110.62185       53.37264524        1.16600074
      110.72154       53.62609477        1.09041240
      110.82123       52.53309567        1.11455834
      110.92093       55.72150235        1.33895702
      111.02062       53.80715196        1.21548420
      111.12031       54.57381467        1.23328624
      111.22001       55.05120567        1.21548478
      111.31970       56.20461252        1.33293842
      111.41939       56.00594695        1.37683279
      111.51909       54.06753275        1.22741364
      111.61878       54.81570756        1.16424816
      111.71847       60.28421911        1.13616541
      111.81817       62.04079338        1.25105176
      111.91786       65.94223987        1.35752893
      112.01755       66.29546792        1.32911166
      112.11725       71.87516022        1.39466937
      112.21694       72.15118556        1.39108298
      112.31663       72.76550329        1.53944965
      112.41633       77.83394128        1.56440125
      112.51602       79.85052939        1.45926663
      112.61571       83.36131690        1.42247646
      112.71541       84.16106394        1.34697750
      112.81510       86.19689845        1.52859623
      112.91479       89.93015879        1.59067973
      113.01449       87.67766388        1.53792179
      113.11418       90.20293590        1.55483644
      113.21387       90.82243329        1.55310297
      113.31357       90.30881592        1.71992571
      113.41326       92.35949361        1.65309968
      113.51296       92.23506583        1.55393422
      113.61265       94.27200359        1.51596535
      113.71234       92.21896691        1.43205106
      113.81204       90.86712785        1.62846408
      113.91173       90.51048532        1.57489310
      114.01142       90.14911579        1.55589490
      114.11112       89.29176939        1.54761087
      114.21081       85.13185306        1.52183825
      114.31050       84.53164577        1.71969392
      114.41020       80.60358346        1.55151719
      114.50989       83.08270581        1.47477066
      114.60958       79.95944018        1.39992254
      114.70928       75.00027197        1.30742663
      114.80897       73.62382430        1.46912145
      114.90866       72.07457129        1.37094707
      115.00836       73.08746044        1.37414290
      115.10805       67.51776495        1.32767981
      115.20774       68.85304136        1.36109773
      115.30744       69.14234779        1.56608496
      115.40713       68.00527207        1.40672746
      115.50682       68.30155543        1.33096307
      115.60652       72.43517562        1.32118271
      115.70621       70.54249333        1.25296945
      115.80590       73.14260240        1.48852113
      115.90560       73.44854606        1.35197904
      116.00529       76.06835978        1.39135939
      116.10498       81.22453169        1.45302804
      116.20468       82.79590790        1.50078072
      116.30437       86.99068222        1.83405305
      116.40406       90.06822797        1.62556944
      116.50376       95.29965667        1.58042790
      116.60345       99.26379678        1.54853770
      116.70314      113.66320456        1.60759636
      116.80284      119.68144731        1.96046482
      116.90253      128.49569167        1.82788895
      117.00222      134.65628267        1.85679493
      117.10192      143.79924682        1.97083799
      117.20161      151.06193747        2.04510536
      117.30131      149.23261541        2.43219818
      117.40100      159.48273021        2.11456712
      117.50069      167.49760194        2.05875524
      117.60039      172.22863342        1.99819822
      117.70008      177.70079039        1.96669781
      117.79977      184.81517028        2.45836364
      117.89947      190.12884627        2.16803595
      117.99916      187.44200257        2.17812839
      118.09885      192.37849588        2.24838437
      118.19855      197.35820078        2.38562870
      118.29824      195.66701316        2.60389233
      118.39793      199.39187811        2.38683912
      118.49763      198.31910145        2.24615027
      118.59732      201.00531428        2.18345391
      118.69701      200.21259004        2.27004195
      118.79671      196.90810611        2.43052707
      118.89640      189.00169963        2.21953799
      118.99609      184.59647328        2.19083485
      119.09579      178.97641612        2.18194262
      119.19548      173.33273634        2.34577116
      119.29517      168.32062044        2.40116379
      119.39487      165.31842923        2.18730302
      119.49456      159.39981537        2.02358702
      119.59425      153.80945107        1.93007592
      119.69395      145.07820817        1.97700685
      119.79364      138.11766703        1.94901678
      119.89333      133.42898505        1.85369783
      119.99303      130.19590280        1.78760474
      120.09272      130.36055632        1.82951235
      120.19241      126.54933455        2.02585334
      120.29211      122.39590320        1.97172924
      120.39180      123.22404469        1.88752331
      120.49149      118.81849911        1.72355787
      120.59119      118.15266590        1.66816914
      120.69088      119.62928998        1.80707308
      120.79057      115.72313845        1.73893267
      120.89027      115.74970131        1.70742403
      120.98996      116.56545001        1.70031057
      121.08966      118.59753864        1.72802968
      121.18935      119.07056032        1.98474881
      121.28904      119.85310464        1.94083464
      121.38874      117.00473215        1.81321662
      121.48843      115.33671192        1.70024775
      121.58812      116.00796199        1.62635801
      121.68782      118.40746946        1.82042020
      121.78751      119.40203770        1.74201577
      121.88720      122.85736601        1.74466096
      121.98690      122.82065244        1.75746815
      122.08659      118.35725777        1.75951259
      122.18628      123.00127265        2.08113693
      122.28598      119.81489375        1.93134759
      122.38567      118.20734567        1.83716339
      122.48536      116.20349706        1.72292004
      122.58506      117.80320703        1.64307269
      122.68475      112.83768491        1.82191721
      122.78444      108.15904068        1.67931721
      122.88414      108.72165952        1.66942016
      122.98383      103.84434379        1.66468974
      123.08352      102.21674745        1.63737628
      123.18322       97.04027711        1.86037663
      123.28291       99.85847370        1.71534439
      123.38260       98.67369654        1.64601208
      123.48230       97.03401519        1.57312012
      123.58199       94.08741778        1.44770616
      123.68168       92.84816112        1.64099582
      123.78138       93.89372216        1.48888224
      123.88107       88.27059668        1.40995396
      123.98076       86.07954639        1.41799213
      124.08046       86.29904208        1.40485047
      124.18015       86.43356259        1.59134253
      124.27984       85.79552449        1.42043493
      124.37954       82.95826234        1.31788681
      124.47923       81.55957349        1.27563612
      124.57893       75.55038662        1.30775850
