        5.04651       61.90419346        2.68123777
        5.14621       55.02226576        2.43559154
        5.24590       58.37890982        2.47309976
        5.34559       61.44993241        2.32738754
        5.44529       54.89091384        2.39249134
        5.54498       56.07164043        2.03412543
        5.64467       55.19923528        2.00053737
        5.74437       58.42165731        1.85803522
        5.84406       52.38200080        1.78010200
        5.94375       54.25292411        1.80930419
        6.04345       56.59652022        1.79579749
        6.14314       56.51415213        1.64305249
        6.24283       53.64615837        1.65349518
        6.34253       54.93829514        1.59604640
        6.44222       56.09505081        1.69824917
        6.54191       50.62263669        1.52804600
        6.64161       54.75870253        1.50577184
        6.74130       50.91568917        1.45763969
        6.84099       54.84409272        1.50208220
        6.94069       55.09943137        1.52825944
        7.04038       51.93291839        1.36940547
        7.14007       53.30046137        1.38450897
        7.23977       52.77201606        1.35351724
        7.33946       52.25705847        1.36748957
        7.43915       52.80121902        1.35668040
        7.53885       51.96932946        1.32107830
        7.63854       54.87860242        1.29765101
        7.73823       55.03690158        1.34937767
        7.83793       53.47049348        1.28702089
        7.93762       55.35786632        1.36612787
        8.03732       53.19871903        1.20095714
        8.13701       53.52184279        1.19917502
        8.23670       53.78497786        1.21909310
        8.33640       54.51068717        1.22765851
        8.43609       54.09978523        1.27860104
        8.53578       53.18789452        1.18082447
        8.63548       55.44695874        1.19187816
        8.73517       52.18348834        1.13410231
        8.83486       53.96223649        1.15615015
        8.93456       55.47391848        1.16627388
        9.03425       52.55523950        1.10182362
        9.13394       54.89528844        1.12829936
        9.23364       55.11266035        1.14704682
        9.33333       54.82295673        1.16730870
        9.43302       55.53488852        1.17533027
        9.53272       55.15524003        1.13171757
        9.63241       55.86742280        1.17122428
        9.73210       53.29451221        1.14154011
        9.83180       54.00410737        1.19739915
        9.93149       51.86321848        1.16493744
       10.03118       54.90617568        1.15343048
       10.13088       55.89167338        1.13588978
       10.23057       56.73403813        1.19847382
       10.33026       54.70404428        1.21637321
       10.42996       56.47621974        1.21906118
       10.52965       56.80494342        1.18404809
       10.62934       58.09024662        1.20029983
       10.72904       56.98614020        1.20637337
       10.82873       56.64580861        1.19669032
       10.92842       56.25849746        1.21256569
       11.02812       57.09008054        1.16376541
       11.12781       57.53228085        1.21018824
       11.22750       58.16951342        1.22902294
       11.32720       55.36522254        1.23116131
       11.42689       56.47461247        1.20034120
       11.52658       56.96550676        1.19119995
       11.62628       57.79171479        1.21286095
       11.72597       56.83597301        1.22829574
       11.82567       58.26217907        1.27825793
       11.92536       58.71578799        1.20088505
       12.02505       60.54218092        1.22517559
       12.12475       63.14613753        1.25022251
       12.22444       64.47162117        1.33959332
       12.32413       68.61815214        1.40320725
       12.42383       73.35013869        1.37714259
       12.52352       80.84538780        1.43702043
       12.62321       90.50001591        1.56372428
       12.72291      101.84383566        1.61430778
       12.82260      117.05634992        1.88155357
       12.92229      125.49444790        1.76915686
       13.02199      142.54510088        1.87068083
       13.12168      169.76275198        2.07759458
       13.22137      208.03932909        2.37599152
       13.32107      239.52288687        2.63253870
       13.42076      277.77643310        2.73066495
       13.52045      316.26094075        2.95106973
       13.62015      334.92666726        2.94465085
       13.71984      329.36617476        3.04368561
       13.81953      314.61860637        3.02579122
       13.91923      283.57704566        2.69825093
       14.01892      228.96655414        2.35959856
       14.11861      175.11612481        2.15188921
       14.21831      144.38434576        1.95570156
       14.31800      113.95245613        1.82838421
       14.41769       87.57622993        1.54298367
       14.51739       73.57142470        1.37949222
       14.61708       66.05439248        1.31029201
       14.71677       59.04032840        1.25879248
       14.81647       56.90654323        1.29458654
       14.91616       54.64685861        1.16657428
       15.01585       55.54776922        1.19739990
       15.11555       53.45747786        1.18818275
       15.21524       52.23509576        1.21047046
       15.31493       50.55987557        1.21954836
       15.41463       49.76089770        1.17139963
       15.51432       50.68709812        1.14565672
       15.61402       51.82535057        1.18783127
       15.71371       50.46692118        1.16405313
       15.81340       49.03357660        1.19357532
       15.91310       49.76658383        1.16841175
       16.01279       50.87626224        1.13119092
       16.11248       49.03083422        1.14023219
       16.21218       49.91986914        1.18244381
       16.31187       47.62550660        1.15768138
       16.41156       49.23444450        1.15522180
       16.51126       47.26486091        1.15093739
       16.61095       51.34924155        1.15689007
       16.71064       51.36040617        1.19359654
       16.81034       53.20812425        1.21863292
       16.91003       56.16889213        1.21609716
       17.00972       54.94538585        1.15461148
       17.10942       58.05977820        1.25459629
       17.20911       64.30322801        1.33226760
       17.30880       67.36830647        1.37561346
       17.40850       70.95664250        1.41158902
       17.50819       75.01501703        1.40948753
       17.60788       74.32810320        1.44653355
       17.70758       77.40355161        1.48239812
       17.80727       75.13231174        1.47840086
       17.90696       72.61072220        1.35876328
       18.00666       69.60539080        1.35357224
       18.10635       67.65361776        1.29792350
       18.20604       62.98843445        1.37367485
       18.30574       61.38216377        1.29233917
       18.40543       55.96810411        1.20327257
       18.50512       55.49245327        1.23594383
       18.60482       54.28633968        1.20321541
       18.70451       52.72334925        1.25300326
       18.80420       54.90552447        1.20131346
       18.90390       52.74268445        1.16475674
       19.00359       50.75506772        1.11265341
       19.10328       46.43627098        1.12580606
       19.20298       51.32509307        1.22062545
       19.30267       49.45337739        1.15054317
       19.40237       47.75748353        1.11778017
       19.50206       47.30829025        1.14046354
       19.60175       49.38598435        1.15225655
       19.70145       47.59577728        1.18607184
       19.80114       48.51570684        1.13577400
       19.90083       47.06519802        1.08080672
       20.00053       47.61584260        1.10642164
       20.10022       48.74171726        1.12778477
       20.19991       50.84067335        1.23150604
       20.29961       49.89412072        1.15590656
       20.39930       50.90070532        1.20282020
       20.49899       51.57147301        1.18971403
       20.59869       53.10612566        1.22942612
       20.69838       55.68466191        1.30546210
       20.79807       56.24596923        1.25143420
       20.89777       55.86152258        1.21891901
       20.99746       56.13869980        1.23410105
       21.09715       58.39959347        1.32592499
       21.19685       58.05232834        1.31507047
       21.29654       61.12526046        1.31650156
       21.39623       58.70600261        1.29014339
       21.49593       58.00517473        1.26405877
       21.59562       57.80195525        1.29221879
       21.69531       51.19326363        1.26461548
       21.79501       48.88195075        1.13036173
       21.89470       48.49948731        1.10058083
       21.99439       48.16649207        1.14328429
       22.09409       47.99707437        1.14409302
       22.19378       45.25637777        1.17970271
       22.29347       45.69765244        1.10407018
       22.39317       46.67661602        1.14477959
       22.49286       46.71489258        1.14433503
       22.59255       46.37689093        1.15358043
       22.69225       43.35441498        1.17523877
       22.79194       46.64561304        1.09493082
       22.89163       46.41344780        1.07083900
       22.99133       45.65238811        1.09144487
       23.09102       48.43746171        1.16769051
       23.19072       46.33655276        1.14469527
       23.29041       48.78786799        1.16005940
       23.39010       46.62006989        1.14578623
       23.48980       45.54178560        1.13652637
       23.58949       46.76005124        1.16712096
       23.68918       49.46076412        1.26236770
       23.78888       45.51529114        1.07906744
       23.88857       42.81705797        1.06018879
       23.98826       45.73268473        1.12028121
       24.08796       47.33307431        1.11757151
       24.18765       46.30627609        1.18438332
       24.28734       45.18182741        1.11382932
       24.38704       46.31531614        1.14660814
       24.48673       45.00887839        1.12622685
       24.58642       46.71349299        1.18539054
       24.68612       45.98414341        1.17451605
       24.78581       45.51180879        1.07711168
       24.88550       44.94205239        1.06989045
       24.98520       46.47171091        1.12824981
       25.08489       47.22757404        1.16012963
       25.18458       49.64090371        1.21448995
       25.28428       47.62412163        1.14644435
       25.38397       49.66559963        1.16515543
       25.48366       49.02828163        1.16455476
       25.58336       52.12269483        1.25166654
       25.68305       60.72154974        1.32537853
       25.78274       67.39043904        1.31803468
       25.88244       83.58768153        1.50560237
       25.98213      106.24375330        1.71220339
       26.08182      134.02908021        1.97476730
       26.18152      162.03517915        2.22507137
       26.28121      188.76964886        2.27285445
       26.38090      201.44800649        2.36811296
       26.48060      202.28274390        2.43845438
       26.58029      181.02158866        2.40511837
       26.67998      160.39700602        2.13752540
       26.77968      126.24193463        1.87250621
       26.87937       99.48034401        1.63771389
       26.97907       81.76064286        1.47195529
       27.07876       70.51124395        1.47156513
       27.17845       71.55308815        1.41677493
       27.27815       72.70798869        1.39474491
       27.37784       81.93547834        1.53875722
       27.47753       86.43004947        1.55727974
       27.57723       84.39217838        1.61186797
       27.67692       85.41646122        1.58291215
       27.77661       81.52390719        1.47587027
       27.87631       73.36756377        1.37654854
       27.97600       65.16561511        1.32629095
       28.07569       56.53906179        1.30718465
       28.17539       53.00092874        1.21150292
       28.27508       52.30549286        1.20404612
       28.37477       52.23861075        1.23191501
       28.47447       51.08533231        1.20867683
       28.57416       54.76772763        1.35317815
       28.67385       53.15809193        1.18600422
       28.77355       55.57120257        1.19083740
       28.87324       58.44090722        1.25384254
       28.97293       55.64921416        1.22625901
       29.07263       58.60149454        1.37182425
       29.17232       57.34080949        1.23831550
       29.27201       57.75951583        1.26581423
       29.37171       55.92514685        1.28123590
       29.47140       53.33138331        1.23662700
       29.57109       51.44325153        1.28781912
       29.67079       48.27584258        1.13562716
       29.77048       48.14542233        1.13671852
       29.87017       50.09003766        1.13676856
       29.96987       50.24321967        1.19376154
       30.06956       46.76481253        1.18804038
       30.16925       48.80021732        1.14277923
       30.26895       49.62120607        1.15678749
       30.36864       50.72434042        1.18873414
       30.46833       52.18570391        1.21801487
       30.56803       52.88534738        1.29525131
       30.66772       57.53546127        1.25739769
       30.76742       60.55345092        1.26425177
       30.86711       65.84001211        1.34478968
       30.96680       65.99601431        1.35416263
       31.06650       67.54607295        1.43656801
       31.16619       62.90015355        1.30323050
       31.26588       62.02777639        1.28635590
       31.36558       60.57142620        1.28775158
       31.46527       60.57762655        1.33999148
       31.56496       63.62654576        1.39549866
       31.66466       65.33967456        1.32257189
       31.76435       76.52592801        1.43034967
       31.86404       83.19021275        1.47198728
       31.96374       89.63989901        1.56369917
       32.06343       91.39780363        1.63404620
       32.16312       88.31182198        1.50935257
       32.26282       79.27426349        1.46457324
       32.36251       71.14320202        1.44261268
       32.46220       64.79828258        1.40123626
       32.56190       62.34710972        1.39878988
       32.66159       55.07430229        1.24818297
       32.76128       57.88960900        1.25111199
       32.86098       52.69302037        1.21134447
       32.96067       50.86505157        1.20498235
       33.06036       54.03942804        1.26481917
       33.16006       54.67109704        1.19812190
       33.25975       53.10307156        1.21910924
       33.35944       56.37092027        1.26301270
       33.45914       56.74908806        1.31546113
       33.55883       57.97471472        1.33275828
       33.65852       64.95600578        1.31579261
       33.75822       66.23499486        1.32638842
       33.85791       72.99109534        1.39829517
       33.95760       79.90140450        1.50640857
       34.05730       90.08020461        1.58429589
       34.15699      100.86129550        1.65008819
       34.25668      114.70362261        1.75390845
       34.35638      140.46200386        1.99188676
       34.45607      176.88913371        2.35541950
       34.55577      221.94849207        2.51552169
       34.65546      291.09659467        2.76510046
       34.75515      379.80061543        3.22238813
       34.85485      449.87091235        3.48341648
       34.95454      463.14625873        3.64492665
       35.05423      449.86216973        3.71473264
       35.15393      384.71514394        3.22253266
       35.25362      299.75386535        2.88571187
       35.35331      222.49677031        2.54875030
       35.45301      160.21769572        2.25530417
       35.55270      119.07369439        1.89237007
       35.65239       94.46453439        1.62757062
       35.75209       82.16977671        1.50670386
       35.85178       77.09968109        1.45744524
       35.95147       73.64836460        1.45789798
       36.05117       69.24008488        1.38433699
       36.15086       64.40924614        1.28362978
       36.25055       59.93632289        1.29350924
       36.35025       57.93828306        1.29659802
       36.44994       52.11986793        1.25410630
       36.54963       51.38681984        1.19536767
       36.64933       53.15400307        1.19768388
       36.74902       51.44952790        1.19056711
       36.84871       52.52617024        1.19432698
       36.94841       52.75608665        1.29442749
       37.04810       52.01521062        1.13328670
       37.14779       49.74823338        1.13095200
       37.24749       50.13721009        1.16696363
       37.34718       49.66121991        1.19101784
       37.44687       51.66514624        1.30503879
       37.54657       50.28647061        1.17535385
       37.64626       48.10397911        1.14506906
       37.74595       48.22978486        1.12864337
       37.84565       51.65862385        1.23607778
       37.94534       49.58555768        1.23363412
       38.04503       49.54952234        1.11458380
       38.14473       50.10847977        1.13185932
       38.24442       48.74901245        1.13674895
       38.34412       52.20317918        1.22998926
       38.44381       52.15054877        1.32930441
       38.54350       51.88322171        1.18190528
       38.64320       50.61756135        1.16380995
       38.74289       56.00643977        1.24044140
       38.84258       55.58766891        1.23876507
       38.94228       57.63200908        1.32307210
       39.04197       61.70443795        1.23462591
       39.14166       67.22789453        1.34081637
       39.24136       70.28762454        1.36741637
       39.34105       72.50451008        1.43733712
       39.44074       71.59472929        1.55787294
       39.54044       72.63442314        1.40307537
       39.64013       66.83973283        1.34156741
       39.73982       64.45332781        1.32264076
       39.83952       61.39504661        1.28203466
       39.93921       58.70168196        1.32910072
       40.03890       54.59682633        1.17313864
       40.13860       56.21415926        1.18892023
       40.23829       55.30237935        1.22091910
       40.33798       56.18177283        1.26898830
       40.43768       56.42308438        1.33056700
       40.53737       57.58281669        1.24761555
       40.63706       57.83109891        1.27656492
       40.73676       58.04269064        1.27687633
       40.83645       59.26197154        1.30104402
       40.93614       62.95453035        1.36360526
       41.03584       67.64325269        1.33037567
       41.13553       76.13422741        1.41330412
       41.23522       87.00359199        1.54782348
       41.33492      107.01381473        1.79768501
       41.43461      125.94595149        2.01326593
       41.53430      142.10813101        2.00292451
       41.63400      168.41378082        2.22899578
       41.73369      190.36612992        2.31902271
       41.83338      199.75834031        2.43943744
       41.93308      199.16205143        2.41397104
       42.03277      197.94875497        2.19934984
       42.13247      213.58283203        2.40139981
       42.23216      255.23205205        2.63103025
       42.33185      329.17715292        3.21070237
       42.43155      410.98013023        3.53849288
       42.53124      517.04529112        3.85001370
       42.63093      599.37453506        4.15914483
       42.73063      654.09457967        4.37012729
       42.83032      620.94132159        4.33008930
       42.93001      557.45635141        3.94421429
       43.02971      437.93573127        3.29544435
       43.12940      306.08902779        2.80457275
       43.22909      199.46908380        2.37563935
       43.32879      148.38328571        2.15791703
       43.42848      106.51737659        1.78743524
       43.52817       81.73640634        1.49789062
       43.62787       72.86819450        1.40976355
       43.72756       68.81772912        1.40255178
       43.82725       64.75680580        1.42060895
       43.92695       62.47420973        1.26529041
       44.02664       58.75175366        1.22102487
       44.12633       56.31751475        1.23993126
       44.22603       56.45634590        1.29219818
       44.32572       55.53802245        1.35076200
       44.42541       55.66716850        1.29114745
       44.52511       54.82764296        1.24687201
       44.62480       57.23781339        1.29210177
       44.72449       61.13883840        1.29429003
       44.82419       62.22683101        1.46522971
       44.92388       66.42527801        1.26270106
       45.02357       70.80411163        1.31441334
       45.12327       78.41954881        1.42494782
       45.22296       93.42541370        1.59667859
       45.32265      108.22242258        1.90125170
       45.42235      129.23158196        1.89226761
       45.52204      163.98718756        2.11157262
       45.62174      210.35466964        2.43760390
       45.72143      262.48856679        2.72662338
       45.82112      295.71197444        3.17104651
       45.92082      313.91684015        2.77531761
       46.02051      306.77872374        2.80158367
       46.12020      267.43135999        2.62109349
       46.21990      211.93571698        2.44784484
       46.31959      172.97099145        2.38556504
       46.41928      131.99912494        1.92281296
       46.51898       96.51115373        1.65200761
       46.61867       78.33161502        1.48049258
       46.71836       65.82474209        1.39187605
       46.81806       60.50368289        1.38372239
       46.91775       59.40373028        1.19523565
       47.01744       55.10318438        1.17849183
       47.11714       59.22971267        1.24990793
       47.21683       60.52401551        1.30069522
       47.31652       65.28403299        1.47385818
       47.41622       74.29558057        1.48195120
       47.51591       84.52125311        1.58375421
       47.61560      106.73147157        1.76567001
       47.71530      125.35201537        1.93478785
       47.81499      155.11921024        2.20809318
       47.91468      186.15520240        2.11778895
       48.01438      212.84642078        2.26720424
       48.11407      219.21903175        2.38729696
       48.21376      213.93636975        2.46185104
       48.31346      192.56023014        2.41725877
       48.41315      163.59920104        2.07513331
       48.51284      129.95255299        1.90931702
       48.61254       99.95880478        1.66652597
       48.71223       81.57736284        1.53231952
       48.81192       69.17258086        1.40739440
       48.91162       59.72762326        1.17218955
       49.01131       54.47133903        1.15859494
       49.11100       54.65059761        1.20238964
       49.21070       51.32801753        1.22327523
       49.31039       52.14399250        1.26898874
       49.41009       48.85070115        1.16019323
       49.50978       51.27818444        1.21337080
       49.60947       50.02320930        1.20715024
       49.70917       48.37450636        1.23103611
       49.80886       49.71675126        1.21466872
       49.90855       47.49402398        1.08138329
       50.00825       50.69957694        1.14100872
       50.10794       51.05698215        1.17109708
       50.20763       48.56721868        1.19321549
       50.30733       53.74849213        1.31510030
       50.40702       51.02903241        1.20153761
       50.50671       53.04501830        1.22872704
       50.60641       57.71669066        1.28371950
       50.70610       56.44819988        1.30624558
       50.80579       54.73477202        1.26921724
       50.90549       57.09201172        1.16878495
       51.00518       54.68493854        1.15392444
       51.10487       54.72771196        1.19327027
       51.20457       56.63090809        1.29232979
       51.30426       55.64982640        1.27437854
       51.40395       57.15531639        1.23819157
       51.50365       59.60426800        1.27899174
       51.60334       59.40850083        1.30209810
       51.70303       58.69948115        1.37444469
       51.80273       59.72799929        1.27178048
       51.90242       60.87099192        1.19960084
       52.00211       60.13853166        1.19796929
       52.10181       62.70608534        1.26210626
       52.20150       62.52551259        1.38791179
       52.30119       63.87213111        1.35135877
       52.40089       61.05576646        1.30041183
       52.50058       60.95913752        1.32392541
       52.60027       61.67071855        1.34985209
       52.69997       58.59867346        1.44184493
       52.79966       55.27721109        1.17721004
       52.89935       56.68451604        1.15029222
       52.99905       65.09217390        1.25310632
       53.09874       73.96601435        1.37914668
       53.19844       85.71939126        1.70062161
       53.29813      103.22827400        1.65921714
       53.39782      121.84300459        1.86563121
       53.49752      142.46101646        2.02756918
       53.59721      163.70399754        2.17311853
       53.69690      167.00249201        2.40841162
       53.79660      184.81754704        2.12357817
       53.89629      173.42746517        2.03410683
       53.99598      154.91859788        1.96833758
       54.09568      136.21934223        1.92640665
       54.19537      117.96390253        1.95413850
       54.29506      104.65072920        1.69035483
       54.39476       90.40422029        1.58267176
       54.49445       88.84010986        1.57009639
       54.59414       84.13298438        1.55103596
       54.69384       83.90490477        1.65243951
       54.79353       80.01409209        1.38361839
       54.89322       77.91037679        1.36031847
       54.99292       73.49315322        1.35970207
       55.09261       70.77160020        1.38748941
       55.19230       69.17342136        1.47304854
       55.29200       63.61455961        1.31456803
       55.39169       60.45710818        1.32220109
       55.49138       57.28437333        1.28214542
       55.59108       55.68668950        1.30462089
       55.69077       57.25277745        1.35766780
       55.79046       53.59596913        1.14830256
       55.89016       51.78427333        1.12595909
       55.98985       55.09463031        1.16897180
       56.08954       57.11814528        1.22955221
       56.18924       60.17673051        1.36212953
       56.28893       66.42518811        1.31000695
       56.38862       73.51793430        1.42579685
       56.48832       88.81311537        1.59473516
       56.58801       93.44782356        1.68318642
       56.68770      104.84364379        1.84067525
       56.78740      109.28262952        1.60849374
       56.88709      112.62467941        1.64940021
       56.98679      109.94897783        1.63109076
       57.08648      101.26058522        1.65899957
       57.18617       95.15767377        1.66504549
       57.28587       83.60329785        1.45775305
       57.38556       76.36492383        1.48285115
       57.48525       67.33131033        1.41877035
       57.58495       59.83053459        1.36775078
       57.68464       54.31019880        1.31425966
       57.78433       53.07731687        1.13654927
       57.88403       52.89082446        1.14777028
       57.98372       52.68959979        1.16381854
       58.08341       53.01744333        1.26228136
       58.18311       51.83555573        1.27670438
       58.28280       51.79840817        1.20208122
       58.38249       50.14220135        1.23574569
       58.48219       50.92748565        1.27231212
       58.58188       52.18278274        1.30203974
       58.68157       53.12945644        1.28745243
       58.78127       52.76844835        1.12229124
       58.88096       53.39133792        1.11226352
       58.98065       54.04101860        1.16164508
       59.08035       54.81554965        1.24841842
       59.18004       58.22732314        1.30537275
       59.27973       60.36465303        1.25408816
       59.37943       62.24263640        1.31549663
       59.47912       66.91535058        1.42009929
       59.57881       70.51281951        1.52729546
       59.67851       74.93695626        1.46807288
       59.77820       84.76094528        1.43572302
       59.87789       89.48106586        1.47003968
       59.97759       94.34871894        1.57919113
       60.07728      100.86618017        1.76851659
       60.17697      106.40250021        1.73064393
       60.27667      108.57138842        1.69977171
       60.37636      105.03390626        1.70406933
       60.47605      103.73142748        1.76663472
       60.57575       94.27705415        1.84525052
       60.67544       91.10106654        1.55828655
       60.77514       85.71524541        1.43680188
       60.87483       76.37056073        1.32956861
       60.97452       70.28166453        1.34347577
       61.07422       69.31771076        1.49883526
       61.17391       66.50743628        1.27163450
       61.27360       66.74836867        1.31918486
       61.37330       64.57482391        1.34554696
       61.47299       64.53711229        1.40426906
       61.57268       68.85431404        1.64970220
       61.67238       68.03623648        1.33649395
       61.77207       69.39019564        1.31459749
       61.87176       69.43911165        1.30041107
       61.97146       69.42779621        1.34999416
       62.07115       69.90337775        1.53421272
       62.17084       65.66575751        1.30258677
       62.27054       64.40696698        1.34504779
       62.37023       64.01815208        1.39438407
       62.46992       59.76130273        1.39319286
       62.56962       60.75081521        1.57772008
       62.66931       57.20700752        1.23321594
       62.76900       57.89650046        1.20922443
       62.86870       63.35464122        1.23752858
       62.96839       67.51107574        1.31835206
       63.06808       74.09737114        1.53730091
       63.16778       79.74061594        1.41583608
       63.26747      100.73040330        1.64783641
       63.36716      116.93194278        1.84341955
       63.46686      134.72699861        2.03922973
       63.56655      152.73835643        2.30802680
       63.66624      172.12747895        2.08376215
       63.76594      201.67384017        2.19296859
       63.86563      208.24615435        2.22177302
       63.96532      209.58456739        2.33223393
       64.06502      197.13544906        2.42205818
       64.16471      179.27826161        2.13518175
       64.26440      153.56777952        2.05557192
       64.36410      128.67876113        1.91827638
       64.46379      110.25676849        1.87699140
       64.56349       95.20932916        1.77458970
       64.66318       80.26697004        1.42564045
       64.76287       69.29511357        1.30799395
       64.86257       62.14446678        1.23661373
       64.96226       61.21336675        1.28561100
       65.06195       56.96061088        1.34083092
       65.16165       52.81496426        1.16453732
       65.26134       52.69620222        1.19045954
       65.36103       54.67052393        1.26536488
       65.46073       53.10747124        1.28804989
       65.56042       54.32682924        1.36070416
       65.66011       56.53943218        1.21049115
       65.75981       58.19631182        1.21588416
       65.85950       58.45157920        1.21077691
       65.95919       61.18576913        1.29684716
       66.05889       62.42787518        1.35497950
       66.15858       72.23887494        1.38646538
       66.25827       80.77563334        1.51656809
       66.35797       90.49121858        1.67256044
       66.45766      109.09256347        1.95226452
       66.55735      120.64864010        2.05300057
       66.65705      136.83410578        1.94011787
       66.75674      155.00682503        2.01305891
       66.85643      168.66075709        2.07657215
       66.95613      166.74277206        2.14637136
       67.05582      171.01384106        2.19018218
       67.15551      170.77462519        2.08273371
       67.25521      154.37861856        2.07747683
       67.35490      143.63891280        2.10916037
       67.45459      124.11764108        2.06677045
       67.55429      112.07586289        1.88135327
       67.65398       93.13990325        1.53669907
       67.75367       80.08043470        1.41287629
       67.85337       74.55655096        1.37994109
       67.95306       76.46319040        1.49449610
       68.05275       76.70836264        1.41740432
       68.15245       86.51868662        1.49280213
       68.25214       97.75138660        1.68468086
       68.35184      103.94868703        1.81075720
       68.45153      108.87783789        2.04026848
       68.55122      119.85213745        1.84460758
       68.65092      128.63417601        1.78155181
       68.75061      133.55157550        1.83417483
       68.85030      128.66649801        1.83459805
       68.95000      123.89369527        2.04072702
       69.04969      118.04966357        1.68202880
       69.14938      104.72193219        1.62846985
       69.24908       90.22358540        1.61363629
       69.34877       78.91300837        1.56041329
       69.44846       67.66262346        1.67550081
       69.54816       65.65313124        1.28684657
       69.64785       57.07535085        1.18270215
       69.74754       53.85848807        1.16038005
       69.84724       53.16611836        1.18296976
       69.94693       49.95991834        1.29404499
       70.04662       50.50171109        1.06993113
       70.14632       45.90438597        1.06056264
       70.24601       49.12621525        1.17488772
       70.34570       47.30130424        1.21986785
       70.44540       48.96980711        1.46250856
       70.54509       48.67701103        1.14131592
       70.64478       48.83297598        1.14152341
       70.74448       48.31692075        1.15345220
       70.84417       50.47735391        1.22347851
       70.94386       53.05782642        1.37706282
       71.04356       50.25355480        1.10888376
       71.14325       51.02577581        1.16117792
       71.24294       51.97161284        1.23305894
       71.34264       53.72698064        1.32944559
       71.44233       54.14717671        1.48932982
       71.54202       53.90534468        1.20977978
       71.64172       54.65991844        1.18504909
       71.74141       53.11288304        1.14689807
       71.84110       54.53922219        1.20311625
       71.94080       55.48827064        1.32242304
       72.04049       52.81461658        1.09189831
       72.14019       53.08016067        1.14052073
       72.23988       51.91925570        1.18016944
       72.33957       53.33877180        1.33622320
       72.43927       51.77034145        1.44904648
       72.53896       52.34121029        1.16823389
       72.63865       54.27275324        1.16285362
       72.73835       55.78819264        1.15310895
       72.83804       59.33815001        1.25594134
       72.93773       62.00406478        1.36385300
       73.03743       64.81249918        1.21047165
       73.13712       67.49030566        1.30276033
       73.23681       67.25771206        1.36629562
       73.33651       66.81605032        1.49843904
       73.43620       68.14511684        1.63916153
       73.53589       70.02780924        1.34052467
       73.63559       69.94793543        1.31871796
       73.73528       66.74351837        1.28215998
       73.83497       67.25736970        1.36454797
       73.93467       63.09077092        1.39144981
       74.03436       63.00606753        1.23059826
       74.13405       58.29371371        1.23380444
       74.23375       58.67997873        1.28945297
       74.33344       55.73540141        1.38329293
       74.43313       56.66996179        1.44742156
       74.53283       56.33553729        1.22613732
       74.63252       54.84769929        1.20100517
       74.73221       57.02331616        1.21869279
       74.83191       58.74282262        1.31219633
       74.93160       62.41654888        1.36800219
       75.03129       65.60535858        1.24698061
       75.13099       71.17821050        1.34557451
       75.23068       85.67377767        1.54053514
       75.33037       96.05219611        1.79355182
       75.43007      109.15559610        1.94033832
       75.52976      124.80117645        1.80292729
       75.62945      147.00433894        1.95636639
       75.72915      156.05723085        2.00817512
       75.82884      167.09718626        2.23801347
       75.92854      165.85344564        2.09289578
       76.02823      172.88933612        2.00444291
       76.12792      177.25372251        2.12157817
       76.22762      170.43589669        2.19435586
       76.32731      156.27361663        2.37188976
       76.42700      148.83976743        2.18417799
       76.52670      138.04154711        1.93982982
       76.62639      121.02454033        1.79236947
       76.72608      105.65485069        1.64610512
       76.82578       98.23944072        1.82857943
       76.92547       93.72498097        1.43040519
       77.02516       96.17556970        1.50194350
       77.12486      104.99742702        1.64903798
       77.22455      118.76853178        1.86831926
       77.32424      130.98283332        2.41139179
       77.42394      140.86026668        1.99735347
       77.52363      153.07786230        2.01288604
       77.62332      165.03620607        2.08127839
       77.72302      172.78062103        2.13487633
       77.82271      174.17329558        2.51381430
       77.92240      176.46950176        1.93771236
       78.02210      176.52888513        2.09122325
       78.12179      169.55301463        2.18845326
       78.22148      154.60052586        2.20871678
       78.32118      140.43657133        2.44153625
       78.42087      127.32174102        1.82884761
       78.52056      112.86617199        1.77735158
       78.62026       91.28544065        1.58476681
       78.71995       82.08864598        1.50745485
       78.81964       75.38229533        1.61326119
       78.91934       66.21394744        1.17125638
       79.01903       64.44556297        1.26683253
       79.11872       59.16641867        1.26306763
       79.21842       55.83495803        1.30879770
       79.31811       56.24163588        1.47965164
       79.41780       54.35686929        1.17994267
       79.51750       57.74821142        1.23593454
       79.61719       56.80594648        1.22937623
       79.71689       59.91913201        1.31103620
       79.81658       59.14548159        1.38071939
       79.91627       60.58118517        1.18454781
       80.01597       60.01948520        1.21186110
       80.11566       64.58056208        1.31430028
       80.21535       64.13122296        1.40000636
       80.31505       65.68568454        1.68441244
       80.41474       66.21153953        1.29952334
       80.51443       68.29803563        1.31415470
       80.61413       70.35915175        1.37816322
       80.71382       72.60236130        1.44830300
       80.81351       74.88435720        1.65290058
       80.91321       72.88721750        1.20237436
       81.01290       83.94528004        1.39334306
       81.11259       93.04687146        1.58352712
       81.21229      107.48806904        1.84144329
       81.31198      118.11050411        2.15356427
       81.41167      139.58513925        1.83389790
       81.51137      167.28725826        2.06664263
       81.61106      189.37512705        2.29708721
       81.71075      209.67971833        2.50280015
       81.81045      224.53781063        2.74472604
       81.91014      261.13775016        2.27825796
       82.00983      300.36496545        2.61450119
       82.10953      327.71896483        3.05743107
       82.20922      344.10000860        3.48579595
       82.30891      361.66160358        3.74920703
       82.40861      374.60381003        3.10422130
       82.50830      368.14967249        3.06872439
       82.60799      364.80893183        3.29026013
       82.70769      355.78862024        3.53505174
       82.80738      349.22193280        3.34556221
       82.90707      322.60279796        2.60886359
       83.00677      304.28367301        2.69834664
       83.10646      277.72435904        3.03100599
       83.20615      254.49213695        3.22758546
       83.30585      231.67607942        2.91564361
       83.40554      203.69327341        2.27139006
       83.50524      167.84965806        2.01004949
       83.60493      137.64921427        2.00381901
       83.70462      118.08446987        2.09192215
       83.80432      108.00713385        1.74822726
       83.90401       90.68087743        1.34333957
       84.00370       77.63537502        1.29617163
       84.10340       65.50671253        1.42242790
       84.20309       68.25457022        1.76307258
       84.30278       64.85168372        1.39760290
       84.40248       62.62546729        1.21209679
       84.50217       59.70176085        1.16094044
       84.60186       59.69074281        1.31262381
       84.70156       61.38591941        1.74200946
       84.80125       62.75918790        1.22636842
       84.90094       62.28007516        1.09743711
       85.00064       61.27809317        1.12151585
       85.10033       62.10238120        1.33622231
       85.20002       65.75718693        2.35853264
       85.29972       63.61541745        1.22361916
       85.39941       64.03052428        1.25161826
       85.49910       66.20616589        1.23776692
       85.59880       65.50565751        1.38440747
       85.69849       63.47557983        2.44649923
       85.79818       63.56773636        1.15427806
       85.89788       65.60901064        1.14472835
       85.99757       64.27247076        1.16411428
       86.09726       65.67622086        1.35115898
       86.19696       70.11019615        2.68169572
       86.29665       64.08992298        1.21308767
       86.39634       64.86091302        1.24157558
       86.49604       66.01811781        1.23370929
       86.59573       62.10904443        1.27481385
       86.69542       55.19677756        2.51207310
       86.79512       59.08467442        1.07903301
       86.89481       58.00667465        1.05403810
       86.99451       57.04542439        1.08342872
       87.09420       51.65315137        1.14957274
       87.19389       53.13980667        2.76213880
       87.29359       52.52320923        1.11288290
       87.39328       51.78425680        1.11992695
       87.49297       50.82599911        1.07705118
       87.59267       49.87159906        1.08783387
       87.69236       55.95860111        3.44879019
       87.79205       51.08231007        1.02628729
       87.89175       51.03905329        1.01759212
       87.99144       52.06447151        1.07098252
       88.09113       50.11502801        1.11673456
       88.19083       57.73133781        6.34433682
       88.29052       50.25898301        1.12539016
       88.39021       49.67013142        1.12621187
       88.48991       48.83048999        1.07163861
       88.58960       50.50849196        1.05553244
       88.68929       51.68961030        8.27225737
       88.78899       48.86753535        1.00209147
       88.88868       49.15441916        0.98308837
       88.98837       49.12077535        1.02215164
       89.08807       46.90075004        1.02295103
       89.18776       44.07766248        8.06810617
       89.28745       50.01584886        1.07340787
       89.38715       50.41390406        1.08875532
       89.48684       52.46933955        1.08704103
       89.58653       53.70489818        1.07746801
       89.68623       52.62702487        8.64638933
       89.78592       57.65959558        1.08496440
       89.88561       63.10298090        1.11295180
       89.98531       67.54885331        1.18091022
       90.08500       74.66663598        1.28799120
       90.18469       83.73196056       11.37902926
       90.28439       82.83348928        1.38588100
       90.38408       88.22313339        1.45450903
       90.48377       92.32796859        1.46019679
       90.58347      103.41352207        1.52163616
       90.68316      106.36671654       12.02205353
       90.78286       99.51984937        1.42866146
       90.88255      104.88372207        1.42736976
       90.98224      106.32813885        1.48700584
       91.08194      106.10411821        1.53416043
       91.18163       96.97248778       11.69974014
       91.28132      104.33583874        1.56625192
       91.38102       99.51816682        1.56999322
       91.48071       92.84459472        1.47888209
       91.58040       85.35402539        1.37099831
       91.68010       76.40049473        9.80989089
       91.77979       74.74979984        1.23118725
       91.87948       71.23360804        1.18317877
       91.97918       64.93845480        1.17281933
       92.07887       63.06127301        1.20384108
       92.17856       64.04746255        9.22489064
       92.27826       62.73333462        1.24007266
       92.37795       62.40604604        1.26615977
       92.47764       62.61915876        1.20402572
       92.57734       68.18485229        1.21907120
       92.67703       71.29506110        8.09265777
       92.77672       75.38514967        1.23573032
       92.87642       85.17820862        1.28890535
       92.97611       90.64967619        1.38869437
       93.07580       97.92023902        1.64769623
       93.17550      101.87205327        3.16065973
       93.27519      100.35541901        1.53761842
       93.37488      104.42538304        1.52489931
       93.47458      106.22607024        1.55499863
       93.57427      111.68130261        1.84370983
       93.67396      113.35074598        2.51031770
       93.77366      112.41688928        1.54862747
       93.87335      107.60561503        1.44699660
       93.97304      104.96760775        1.48922025
       94.07274       99.47622446        1.88183452
       94.17243      100.22781299        2.15536401
       94.27212       91.82827098        1.53615639
       94.37182       84.08229178        1.43221090
       94.47151       78.70865527        1.32679226
       94.57121       73.28653395        1.68934085
       94.67090       67.92545740        1.64490278
       94.77059       67.92988234        1.27874324
       94.87029       64.27221632        1.13092781
       94.96998       60.09976411        1.10729869
       95.06967       60.79397685        1.28386391
       95.16937       58.48970418        1.72371864
       95.26906       61.54611807        1.36611488
       95.36875       61.58019465        1.23995628
       95.46845       58.62437629        1.16258176
       95.56814       57.06520065        1.31979377
       95.66783       54.53230975        1.44931944
       95.76753       56.61316300        1.22039327
       95.86722       54.71539585        1.02047299
       95.96691       54.71980615        1.05853087
       96.06661       54.23897504        1.35000635
       96.16630       52.82347656        1.42066346
       96.26599       52.88706604        1.27661883
       96.36569       51.37440154        1.12892313
       96.46538       48.82277043        1.06201385
       96.56507       47.48795095        1.29269856
       96.66477       47.75530534        1.26319510
       96.76446       49.79997825        1.15280975
       96.86415       48.17913330        0.98211644
       96.96385       47.93750251        1.01181730
       97.06354       52.90122798        1.43752637
       97.16323       50.96692351        1.34904756
       97.26293       51.09683810        1.26904987
       97.36262       51.36442608        1.17826483
       97.46231       51.54297334        1.08587213
       97.56201       50.38042438        1.36576826
       97.66170       50.29879776        1.22571766
       97.76139       51.05518309        1.12192131
       97.86109       52.92190214        1.03294419
       97.96078       53.75195100        1.06378452
       98.06047       56.18922639        1.51083409
       98.16017       54.33019938        1.32058410
       98.25986       54.29470534        1.26097897
       98.35956       54.70600528        1.19499536
       98.45925       54.69045988        1.11524495
       98.55894       58.15643942        1.50036205
       98.65864       58.40091429        1.29004320
       98.75833       60.80365923        1.23002110
       98.85802       63.14366734        1.17047791
       98.95772       66.11146950        1.18979865
       99.05741       69.36177770        1.69204132
       99.15710       72.68878553        1.48981503
       99.25680       75.74672267        1.47355123
       99.35649       78.20956798        1.42620059
       99.45618       83.97308531        1.37747025
       99.55588       82.92594754        1.82897312
       99.65557       87.77033272        1.55259278
       99.75526       90.57569121        1.47841340
       99.85496       89.91922085        1.40197970
       99.95465       89.89730538        1.37430404
      100.05434       89.60059192        1.95455087
      100.15404       92.18259456        1.67000925
      100.25373       91.39468641        1.64289701
      100.35342       92.11717701        1.64297320
      100.45312       89.92873481        1.48118567
      100.55281       90.82912408        1.95517944
      100.65250       86.80745911        1.55692546
      100.75220       80.31771825        1.38688116
      100.85189       76.99271187        1.29729669
      100.95158       74.62381395        1.24295580
      101.05128       76.28550600        1.79180887
      101.15097       71.55359557        1.43398698
      101.25066       67.88323768        1.37980147
      101.35036       70.81034882        1.42159910
      101.45005       73.12187048        1.35857524
      101.54974       72.39713683        1.68370159
      101.64944       77.04810610        1.41736082
      101.74913       78.30074027        1.34633151
      101.84882       82.68638855        1.34695608
      101.94852       86.28136450        1.44953661
      102.04821       88.82999775        1.77167930
      102.14791       91.34112560        1.61924380
      102.24760       92.43142196        1.61518544
      102.34729       87.45675320        1.56443384
      102.44699       89.35608622        1.60893134
      102.54668       94.54755802        1.73695233
      102.64637       93.43770225        1.54211910
      102.74607       92.06506697        1.45776698
      102.84576       95.84191506        1.45931878
      102.94545       96.13261425        1.66462712
      103.04515       92.00390365        1.72371007
      103.14484       90.89323448        1.60065882
      103.24453       91.03117162        1.57716700
      103.34423       90.26704930        1.55777849
      103.44392       89.45684442        1.67979328
      103.54361       87.32529352        1.61215098
      103.64331       86.63306579        1.46162306
      103.74300       84.30489226        1.37521767
      103.84269       83.50063018        1.34491216
      103.94239       79.32895454        1.57508605
      104.04208       77.64199444        1.50741811
      104.14177       78.77747558        1.47732742
      104.24147       80.05486771        1.48856635
      104.34116       80.14748397        1.49867903
      104.44085       81.56466397        1.71720404
      104.54055       82.66674671        1.56526956
      104.64024       80.22591141        1.44933578
      104.73993       78.77102605        1.37038045
      104.83963       75.94742657        1.29626654
      104.93932       71.69356477        1.52658544
      105.03901       72.11237784        1.44263836
      105.13871       71.10183952        1.37926938
      105.23840       68.29367845        1.35084801
      105.33809       64.53209120        1.32069542
      105.43779       65.17639480        1.54437005
      105.53748       63.33770453        1.36521209
      105.63717       59.60629393        1.21379669
      105.73687       55.37401394        1.11321982
      105.83656       54.44386165        1.07556212
      105.93626       54.81393049        1.36764755
      106.03595       53.61008328        1.22579675
      106.13564       51.44484770        1.16049251
      106.23534       50.46093371        1.16345418
      106.33503       50.64558060        1.17736369
      106.43472       47.46069598        1.34728501
      106.53442       47.89254091        1.17721225
      106.63411       46.20125816        1.05026640
      106.73380       46.55060996        1.00479268
      106.83350       47.40323710        0.99884497
      106.93319       50.53345870        1.33703579
      107.03288       50.29580431        1.18219551
      107.13258       48.89296887        1.13131282
      107.23227       50.97283765        1.17197526
      107.33196       50.83291026        1.16714741
      107.43166       54.08393284        1.44669357
      107.53135       53.79108496        1.24480864
      107.63104       55.11204432        1.14736144
      107.73074       59.14625908        1.14053090
      107.83043       59.90133990        1.13330947
      107.93012       64.66379708        1.55793811
      108.02982       63.29367703        1.34901106
      108.12951       66.67569471        1.31683906
      108.22920       65.99238808        1.28903657
      108.32890       68.38240064        1.29977048
      108.42859       70.42557226        1.67419378
      108.52828       73.22418565        1.44821705
      108.62798       74.19252834        1.32187914
      108.72767       74.99246588        1.27564215
      108.82736       73.75445660        1.29288690
      108.92706       74.68959429        1.64783402
      109.02675       74.11030603        1.43594792
      109.12644       72.94733789        1.39040788
      109.22614       70.33671138        1.36625005
      109.32583       74.34379635        1.53082462
      109.42552       72.63682708        1.59599233
      109.52522       71.82121949        1.43175075
      109.62491       70.50259834        1.34921446
      109.72461       65.76882014        1.24566061
      109.82430       62.54782226        1.13463092
      109.92399       60.82087644        1.45463449
      110.02369       59.98605981        1.26502465
      110.12338       59.69127322        1.25367709
      110.22307       56.84208285        1.21411321
      110.32277       58.58289717        1.25872556
      110.42246       53.88248654        1.46754092
      110.52215       54.94677326        1.25521727
      110.62185       52.43703441        1.15555416
      110.72154       52.38812928        1.07757198
      110.82123       53.49602611        1.12462554
      110.92093       52.69566315        1.30179449
      111.02062       52.05801801        1.19534274
      111.12031       54.29483061        1.22996519
      111.22001       53.15538642        1.19414434
      111.31970       58.64365605        1.36150149
      111.41939       55.28543109        1.36774321
      111.51909       54.81232542        1.23571784
      111.61878       57.17097193        1.18894851
      111.71847       62.19438893        1.15395998
      111.81817       63.53339694        1.26592115
      111.91786       66.89181795        1.36714460
      112.01755       67.50765989        1.34109889
      112.11725       70.68753080        1.38286972
      112.21694       73.06453859        1.39973168
      112.31663       74.45053107        1.55707165
      112.41633       73.34479543        1.51818894
      112.51602       80.75300908        1.46735478
      112.61571       84.16439511        1.42917537
      112.71541       86.95255582        1.36909891
      112.81510       86.70098950        1.53289689
      112.91479       88.75056461        1.57995187
      113.01449       90.00432280        1.55812847
      113.11418       90.43744195        1.55667644
      113.21387       87.47711415        1.52386339
      113.31357       90.01938573        1.71693745
      113.41326       90.27801382        1.63404392
      113.51296       94.94389788        1.57654288
      113.61265       95.83882200        1.52840642
      113.71234       95.29318022        1.45570217
      113.81204       93.06178883        1.64793578
      113.91173       90.06805451        1.57082037
      114.01142       90.61275888        1.55972324
      114.11112       86.87560871        1.52621005
      114.21081       87.73169412        1.54485135
      114.31050       83.56615981        1.70957513
      114.41020       82.57603595        1.57030069
      114.50989       82.35667765        1.46809348
      114.60958       78.67237311        1.38837502
      114.70928       77.05062596        1.32510888
      114.80897       73.52079704        1.46790597
      114.90866       73.44610238        1.38382512
      115.00836       69.81774673        1.34273259
      115.10805       70.99167501        1.36140513
      115.20774       70.30082576        1.37523304
      115.30744       66.43384126        1.53476772
      115.40713       69.87783398        1.42588082
      115.50682       69.62579033        1.34369971
      115.60652       69.80110042        1.29665708
      115.70621       69.61951720        1.24455083
      115.80590       71.28939494        1.46926488
      115.90560       74.34759458        1.36010292
      116.00529       79.56254148        1.42295537
      116.10498       78.97445095        1.43246990
      116.20468       85.23495163        1.52266790
      116.30437       84.83909214        1.81086837
      116.40406       89.61235819        1.62122376
      116.50376       95.83645410        1.58470660
      116.60345      101.27528795        1.56406609
      116.70314      111.50191984        1.59192134
      116.80284      120.04944686        1.96325948
      116.90253      130.61664794        1.84282257
      117.00222      137.08076672        1.87336438
      117.10192      139.65982327        1.94174317
      117.20161      148.48346163        2.02714328
      117.30131      150.28392749        2.44053946
      117.40100      156.41355911        2.09363840
      117.50069      164.06257960        2.03703980
      117.60039      174.27784460        2.00994737
      117.70008      181.30525157        1.98654991
      117.79977      186.48153478        2.46926185
      117.89947      190.70392971        2.17108915
      117.99916      190.36326630        2.19499006
      118.09885      193.27252425        2.25339623
      118.19855      196.42714202        2.37962514
      118.29824      194.29690733        2.59431691
      118.39793      199.74244428        2.38867234
      118.49763      203.40036586        2.27486761
      118.59732      201.63479609        2.18664973
      118.69701      200.07191973        2.26895456
      118.79671      195.85318591        2.42362063
      118.89640      188.51486366        2.21636747
      118.99609      184.58201438        2.19047865
      119.09579      181.66940672        2.19823346
      119.19548      176.48012035        2.36694209
      119.29517      170.66957508        2.41776137
      119.39487      169.51780499        2.21496238
      119.49456      157.41617979        2.01056912
      119.59425      151.09325121        1.91254023
      119.69395      141.45888664        1.95170221
      119.79364      138.78209894        1.95350374
      119.89333      133.51076147        1.85404237
      119.99303      130.04881326        1.78636501
      120.09272      129.63942851        1.82417381
      120.19241      126.94760004        2.02881658
      120.29211      124.90910896        1.99179938
      120.39180      120.94012254        1.86956836
      120.49149      120.33147484        1.73437459
      120.59119      117.56481445        1.66377426
      120.69088      116.12907654        1.78000169
      120.79057      116.32409685        1.74326349
      120.89027      118.10566281        1.72464259
      120.98996      118.10563417        1.71138804
      121.08966      117.92359523        1.72285926
      121.18935      117.66974101        1.97269866
      121.28904      117.37236747        1.92023930
      121.38874      114.53072695        1.79356699
      121.48843      116.03393122        1.70521020
      121.58812      117.26889131        1.63504329
      121.68782      120.72623274        1.83808103
      121.78751      121.31270134        1.75579925
      121.88720      123.58739521        1.74966558
      121.98690      123.43258421        1.76166119
      122.08659      120.61359557        1.77612630
      122.18628      119.99673451        2.05509134
      122.28598      121.64251785        1.94590657
      122.38567      119.21868941        1.84484342
      122.48536      116.84576811        1.72750046
      122.58506      113.04233080        1.60906097
      122.68475      113.06005235        1.82350049
      122.78444      112.09713296        1.70964134
      122.88414      109.36171943        1.67415776
      122.98383      105.52447533        1.67799416
      123.08352       98.43995006        1.60642990
      123.18322      100.33986679        1.89172632
      123.28291       98.92962206        1.70708107
      123.38260       95.33934359        1.61757249
      123.48230       96.18109452        1.56595038
      123.58199       95.35290910        1.45729418
      123.68168       90.83087993        1.62275525
      123.78138       93.66632148        1.48688234
      123.88107       91.98053045        1.43928835
      123.98076       87.47077532        1.42929816
      124.08046       85.96726275        1.40195745
      124.18015       85.61641956        1.58356081
      124.27984       85.60924440        1.41870714
      124.37954       80.77968313        1.30020633
      124.47923       78.41007784        1.25047016
      124.57893       75.13563780        1.30398337
