        5.04651       61.80921637        2.68195981
        5.14621       62.74593836        2.60434263
        5.24590       56.90153311        2.44402115
        5.34559       59.07510504        2.28415606
        5.44529       54.55163002        2.38754107
        5.54498       54.97834221        2.01621663
        5.64467       56.64927330        2.02885728
        5.74437       52.91316007        1.76976886
        5.84406       54.18955255        1.81255577
        5.94375       55.92535849        1.83900125
        6.04345       52.14731823        1.72529128
        6.14314       54.87582219        1.62065389
        6.24283       53.24839565        1.64904637
        6.34253       53.70075008        1.57954209
        6.44222       53.16485242        1.65484999
        6.54191       54.23813840        1.58352123
        6.64161       54.27343964        1.50062052
        6.74130       51.74981124        1.47110499
        6.84099       52.62111574        1.47274255
        6.94069       51.04770535        1.47231828
        7.04038       49.58911052        1.33943032
        7.14007       54.00573761        1.39512494
        7.23977       51.87878730        1.34336890
        7.33946       52.12354727        1.36715764
        7.43915       53.29007331        1.36438930
        7.53885       55.26310656        1.36387679
        7.63854       53.77833179        1.28586464
        7.73823       53.19630838        1.32791770
        7.83793       52.64234717        1.27830807
        7.93762       51.47799893        1.31857608
        8.03732       54.97576792        1.22219873
        8.13701       52.87809579        1.19315585
        8.23670       55.30535071        1.23755714
        8.33640       53.26453079        1.21475526
        8.43609       54.13947766        1.28040386
        8.53578       52.15216110        1.17044590
        8.63548       52.58868553        1.16184303
        8.73517       53.59156970        1.15055549
        8.83486       54.23416885        1.16027779
        8.93456       55.23528990        1.16496481
        9.03425       52.73426465        1.10485518
        9.13394       53.84388203        1.11856426
        9.23364       55.18053520        1.14895090
        9.33333       53.33198810        1.15246465
        9.43302       54.35951947        1.16398882
        9.53272       53.50018263        1.11570406
        9.63241       55.18652303        1.16524930
        9.73210       53.43266800        1.14421477
        9.83180       54.69862930        1.20635866
        9.93149       55.19473604        1.20316384
       10.03118       55.59166826        1.16184498
       10.13088       56.07863132        1.13898025
       10.23057       55.73810715        1.18910321
       10.33026       54.21005709        1.21210863
       10.42996       52.54604052        1.17694067
       10.52965       55.55617365        1.17212874
       10.62934       56.17433221        1.18148913
       10.72904       56.05218664        1.19765321
       10.82873       56.77740272        1.19933259
       10.92842       56.16099359        1.21277182
       11.02812       58.58530340        1.18019637
       11.12781       57.55283068        1.21166548
       11.22750       56.12772247        1.20843054
       11.32720       57.55945063        1.25672518
       11.42689       58.25615107        1.22047304
       11.52658       55.21571101        1.17391115
       11.62628       58.07465832        1.21710436
       11.72597       58.62101774        1.24881247
       11.82567       59.83498627        1.29681700
       11.92536       57.32546634        1.18775931
       12.02505       62.25878896        1.24379189
       12.12475       58.52173223        1.20462977
       12.22444       65.52585094        1.35195690
       12.32413       68.77973753        1.40632802
       12.42383       75.88997515        1.40236436
       12.52352       82.91171188        1.45688744
       12.62321       90.52446589        1.56556141
       12.72291       99.03614924        1.59339549
       12.82260      117.19071466        1.88459399
       12.92229      127.45563274        1.78489729
       13.02199      146.93615306        1.90153293
       13.12168      169.64082864        2.07898493
       13.22137      209.71806332        2.38815592
       13.32107      242.63644781        2.65260441
       13.42076      281.38226063        2.75149284
       13.52045      316.07800563        2.95321411
       13.62015      338.21896635        2.96244682
       13.71984      337.04640062        3.08293071
       13.81953      312.40058825        3.01795856
       13.91923      281.84584136        2.69259738
       14.01892      227.23865937        2.35295518
       14.11861      177.78694565        2.17067845
       14.21831      140.96731455        1.93418945
       14.31800      113.40608712        1.82585226
       14.41769       86.92128583        1.53876492
       14.51739       76.15405281        1.40508323
       14.61708       64.79357718        1.29901938
       14.71677       57.54605985        1.24398920
       14.81647       54.51427562        1.26829562
       14.91616       54.87554306        1.17023947
       15.01585       50.55389399        1.14329644
       15.11555       53.96752812        1.19510248
       15.21524       51.89193623        1.20772985
       15.31493       47.90727406        1.18825144
       15.41463       49.76774491        1.17270090
       15.51432       49.75256158        1.13619110
       15.61402       50.68519442        1.17586883
       15.71371       48.77245546        1.14546799
       15.81340       49.95182317        1.20599353
       15.91310       49.21705209        1.16313088
       16.01279       50.19992395        1.12479053
       16.11248       50.11685585        1.15403609
       16.21218       47.62262809        1.15602578
       16.31187       49.36126688        1.17988914
       16.41156       50.24715388        1.16829976
       16.51126       50.49053657        1.19093789
       16.61095       52.68387939        1.17310397
       16.71064       51.57778936        1.19737491
       16.81034       51.07754252        1.19513902
       16.91003       54.38294405        1.19777814
       17.00972       58.27766109        1.19048598
       17.10942       59.15802211        1.26777403
       17.20911       61.19032888        1.30083025
       17.30880       66.95368383        1.37278061
       17.40850       71.29204103        1.41640974
       17.50819       73.95101800        1.40085876
       17.60788       76.63576018        1.47046389
       17.70758       78.28846349        1.49244425
       17.80727       74.49949445        1.47365973
       17.90696       73.21665044        1.36586906
       18.00666       68.20829105        1.34124712
       18.10635       64.85178150        1.27195971
       18.20604       58.18726479        1.32143528
       18.30574       59.14890910        1.26983259
       18.40543       57.49877296        1.22095147
       18.50512       55.91105723        1.24190688
       18.60482       54.88898388        1.21116124
       18.70451       54.85908738        1.27955733
       18.80420       55.61673557        1.21035835
       18.90390       52.63163308        1.16473718
       19.00359       51.78845443        1.12513501
       19.10328       51.32394159        1.18500990
       19.20298       50.47148004        1.21165688
       19.30267       48.35368938        1.13882011
       19.40237       47.92731410        1.12093926
       19.50206       48.56117346        1.15672149
       19.60175       47.79705697        1.13468628
       19.70145       48.11946800        1.19384368
       19.80114       46.93511655        1.11822126
       19.90083       46.80190047        1.07889228
       20.00053       47.60996416        1.10750583
       20.10022       47.71196755        1.11692998
       20.19991       50.29712735        1.22615771
       20.29961       51.60609288        1.17686570
       20.39930       49.35985463        1.18564408
       20.49899       50.94549314        1.18367714
       20.59869       51.65151612        1.21367248
       20.69838       51.80323862        1.26028155
       20.79807       55.09884038        1.23984670
       20.89777       57.54924180        1.23855721
       20.99746       59.89350927        1.27620022
       21.09715       57.53615467        1.31741674
       21.19685       59.30365002        1.33061058
       21.29654       59.14086243        1.29621291
       21.39623       62.13530491        1.32883257
       21.49593       57.15891425        1.25607299
       21.59562       53.52568666        1.24460765
       21.69531       50.35380797        1.25547351
       21.79501       50.70806043        1.15255546
       21.89470       48.47293019        1.10142476
       21.99439       48.21977129        1.14511039
       22.09409       48.07771809        1.14625003
       22.19378       48.84876475        1.22706274
       22.29347       48.97307848        1.14427621
       22.39317       46.87332509        1.14839258
       22.49286       47.98170336        1.16100747
       22.59255       45.06853233        1.13832442
       22.69225       47.03017522        1.22548043
       22.79194       47.12412919        1.10169800
       22.89163       46.78207173        1.07621720
       22.99133       46.79639978        1.10623171
       23.09102       47.50469866        1.15755947
       23.19072       47.34054771        1.15827673
       23.29041       49.03320425        1.16419417
       23.39010       47.81223847        1.16160161
       23.48980       45.17225739        1.13307083
       23.58949       48.35269045        1.18813381
       23.68918       45.42076552        1.21080187
       23.78888       45.80348449        1.08361728
       23.88857       46.26500752        1.10333219
       23.98826       45.50178867        1.11860492
       24.08796       46.00942317        1.10293109
       24.18765       46.96428491        1.19403919
       24.28734       44.80095205        1.11026560
       24.38704       44.41209533        1.12389702
       24.48673       46.61681812        1.14742694
       24.58642       48.10436961        1.20422078
       24.68612       45.24361592        1.16620404
       24.78581       45.25320915        1.07515666
       24.88550       47.10892420        1.09660432
       24.98520       47.13983829        1.13754216
       25.08489       46.85612290        1.15674722
       25.18458       47.03501629        1.18330600
       25.28428       48.71829978        1.16079238
       25.38397       51.08524141        1.18298069
       25.48366       51.16154996        1.19094929
       25.58336       54.29556231        1.27891807
       25.68305       60.42207232        1.32346842
       25.78274       64.67578127        1.29243495
       25.88244       81.52621042        1.48835810
       25.98213      105.09780300        1.70464287
       26.08182      129.42946810        1.94228323
       26.18152      157.02694816        2.19229506
       26.28121      187.63432004        2.26825712
       26.38090      201.58156509        2.37135056
       26.48060      202.66584474        2.44331059
       26.58029      177.56727771        2.38423151
       26.67998      160.24159439        2.13868645
       26.77968      130.69643048        1.90752762
       26.87937       97.55747413        1.62338291
       26.97907       82.67225494        1.48172446
       27.07876       74.26694721        1.51201804
       27.17845       71.77815043        1.42048856
       27.27815       76.02340584        1.42783975
       27.37784       79.45049836        1.51668594
       27.47753       86.71170686        1.56145130
       27.57723       89.52118167        1.66215151
       27.67692       87.19536496        1.60107223
       27.77661       82.36501801        1.48505011
       27.87631       74.85587843        1.39195951
       27.97600       65.40260520        1.33009421
       28.07569       56.95854983        1.31341052
       28.17539       54.96754310        1.23514529
       28.27508       55.85655214        1.24569851
       28.37477       50.09014927        1.20748113
       28.47447       50.17582814        1.19907845
       28.57416       52.77896726        1.32967248
       28.67385       52.39831487        1.17869290
       28.77355       58.57077623        1.22395633
       28.87324       55.74996668        1.22579433
       28.97293       59.20192696        1.26627179
       29.07263       60.15325206        1.39139140
       29.17232       61.55156310        1.28450339
       29.27201       57.31524468        1.26222977
       29.37171       55.86169941        1.28183944
       29.47140       54.31468707        1.24931817
       29.57109       53.77810627        1.31819986
       29.67079       49.80677123        1.15475723
       29.77048       48.35793026        1.14041989
       29.87017       48.02283544        1.11414273
       29.96987       48.81981098        1.17789696
       30.06956       50.53022156        1.23639458
       30.16925       49.17943281        1.14842131
       30.26895       47.89029365        1.13754712
       30.36864       50.05148965        1.18202566
       30.46833       52.95321470        1.22825017
       30.56803       54.37138150        1.31475963
       30.66772       58.29385748        1.26700928
       30.76742       62.22392219        1.28298090
       30.86711       65.59388863        1.34365888
       30.96680       64.85084716        1.34370513
       31.06650       64.53578345        1.40550393
       31.16619       63.10403426        1.30670886
       31.26588       59.44929637        1.26053175
       31.36558       60.33785229        1.28659362
       31.46527       60.45807244        1.34005641
       31.56496       62.56397152        1.38518544
       31.66466       68.07650757        1.35152146
       31.76435       75.22247206        1.41952537
       31.86404       81.70536014        1.46023140
       31.96374       85.11751828        1.52508460
       32.06343       90.04426570        1.62350902
       32.16312       88.27223708        1.51057991
       32.26282       80.93361469        1.48144672
       32.36251       74.33030949        1.47627136
       32.46220       66.45766975        1.42062430
       32.56190       62.75905682        1.40488446
       32.66159       56.27465113        1.26307905
       32.76128       55.29019582        1.22386110
       32.86098       54.66932801        1.23522281
       32.96067       51.35692508        1.21207676
       33.06036       55.58450974        1.28417922
       33.16006       55.77676994        1.21148414
       33.25975       53.70250761        1.22727344
       33.35944       55.39678915        1.25331299
       33.45914       56.60002329        1.31509332
       33.55883       61.79200825        1.37755361
       33.65852       62.64442777        1.29340756
       33.75822       67.61110278        1.34155558
       33.85791       74.96426458        1.41864144
       33.95760       84.88923151        1.55460200
       34.05730       90.73430549        1.59172581
       34.15699      100.38812081        1.64789450
       34.25668      114.36228348        1.75309195
       34.35638      137.08010741        1.96956512
       34.45607      175.86851250        2.35095564
       34.55577      222.11843732        2.51908955
       34.65546      288.45040928        2.75507074
       34.75515      383.41789521        3.24139666
       34.85485      450.07169255        3.48774773
       34.95454      473.49472980        3.69045936
       35.05423      448.19724751        3.71139717
       35.15393      390.84441641        3.25209312
       35.25362      304.66650358        2.91273593
       35.35331      219.95054659        2.53650793
       35.45301      157.32598829        2.23694300
       35.55270      117.94641084        1.88526912
       35.65239       93.87126824        1.62410280
       35.75209       83.15147198        1.51730525
       35.85178       77.43622962        1.46215871
       35.95147       69.67172784        1.41926852
       36.05117       67.79589303        1.37117924
       36.15086       61.51555211        1.25564145
       36.25055       61.18318763        1.30831242
       36.35025       55.45567399        1.26972454
       36.44994       55.04833064        1.29033260
       36.54963       52.99861660        1.21530334
       36.64933       52.10756934        1.18702729
       36.74902       52.52443777        1.20423839
       36.84871       53.77757212        1.20978226
       36.94841       52.61489723        1.29403416
       37.04810       53.58846753        1.15155970
       37.14779       50.09531677        1.13608652
       37.24749       53.48377461        1.20667864
       37.34718       51.98659699        1.21995281
       37.44687       47.87975328        1.25746172
       37.54657       50.54603059        1.17962164
       37.64626       51.16748775        1.18232625
       37.74595       49.88309154        1.14908799
       37.84565       50.48868058        1.22322298
       37.94534       51.25158211        1.25556756
       38.04503       49.76754932        1.11820558
       38.14473       49.21261493        1.12282878
       38.24442       48.39103873        1.13373322
       38.34412       50.17478229        1.20702616
       38.44381       49.55209780        1.29699529
       38.54350       49.88225848        1.16001547
       38.64320       53.09814719        1.19333188
       38.74289       52.88995670        1.20655803
       38.84258       55.19631380        1.23566510
       38.94228       57.99871014        1.32867372
       39.04197       61.12079373        1.23002679
       39.14166       65.67764342        1.32657339
       39.24136       70.40393770        1.36997655
       39.34105       71.57455435        1.42952818
       39.44074       72.24939777        1.56664327
       39.54044       69.74921036        1.37621662
       39.64013       67.64261085        1.35104322
       39.73982       67.75380945        1.35765129
       39.83952       65.49827386        1.32575279
       39.93921       60.99182026        1.35629865
       40.03890       58.42878552        1.21503753
       40.13860       55.62183713        1.18384666
       40.23829       53.99343278        1.20758428
       40.33798       55.92146168        1.26735173
       40.43768       55.87253966        1.32541263
       40.53737       59.30240916        1.26750221
       40.63706       58.48201221        1.28509496
       40.73676       59.20776386        1.29102347
       40.83645       61.58574522        1.32779628
       40.93614       64.50441083        1.38180046
       41.03584       67.75419115        1.33285668
       41.13553       75.46288342        1.40848898
       41.23522       87.66908476        1.55538259
       41.33492      104.59626097        1.77895636
       41.43461      122.66507830        1.98870041
       41.53430      146.21367691        2.03404598
       41.63400      168.19093095        2.22980446
       41.73369      193.61921475        2.34143123
       41.83338      199.42292603        2.43987259
       41.93308      202.26070028        2.43544815
       42.03277      202.99351715        2.22988713
       42.13247      215.57286186        2.41521314
       42.23216      262.32811948        2.67075075
       42.33185      326.34202430        3.19979849
       42.43155      417.42889396        3.57055969
       42.53124      518.09171187        3.85793198
       42.63093      600.22529774        4.16638977
       42.73063      646.14589443        4.34666497
       42.83032      625.03893385        4.34930673
       42.93001      564.44887970        3.97381073
       43.02971      436.45830401        3.29304995
       43.12940      306.35149662        2.80867145
       43.22909      209.96303825        2.44073365
       43.32879      152.30396358        2.18880197
       43.42848      108.82634279        1.80872552
       43.52817       83.27228344        1.51355143
       43.62787       72.97200993        1.41223987
       43.72756       68.48197073        1.40056515
       43.82725       62.80043708        1.40034482
       43.92695       62.46889338        1.26655322
       44.02664       57.99454392        1.21436151
       44.12633       59.26642556        1.27343652
       44.22603       55.87103588        1.28679432
       44.32572       56.51674360        1.36407788
       44.42541       57.67303325        1.31566506
       44.52511       58.49432520        1.28939815
       44.62480       55.61087700        1.27485900
       44.72449       60.17317596        1.28532085
       44.82419       61.21683453        1.45475101
       44.92388       68.64413571        1.28505327
       45.02357       73.20039461        1.33797361
       45.12327       82.74837996        1.46549348
       45.22296       93.53501980        1.59928029
       45.32265      108.90521197        1.90926433
       45.42235      132.16930854        1.91583405
       45.52204      162.91639201        2.10676350
       45.62174      212.54367379        2.45296518
       45.72143      258.62353303        2.70888915
       45.82112      292.26661670        3.15537105
       45.92082      309.69309128        2.75899955
       46.02051      305.26803593        2.79739047
       46.12020      269.94325345        2.63630576
       46.21990      216.62677641        2.47774090
       46.31959      174.12704788        2.39609244
       46.41928      131.27786312        1.91949011
       46.51898      100.70130577        1.68948920
       46.61867       78.45476031        1.48320270
       46.71836       65.08662884        1.38545451
       46.81806       60.71630261        1.38760489
       46.91775       59.22670970        1.19468844
       47.01744       59.06047295        1.22151614
       47.11714       56.98880380        1.22721489
       47.21683       60.30658485        1.29969836
       47.31652       64.29820392        1.46415908
       47.41622       75.38501399        1.49438661
       47.51591       85.90425219        1.59839583
       47.61560      104.36592348        1.74766019
       47.71530      129.68272025        1.97026400
       47.81499      149.11853863        2.16674674
       47.91468      185.15205187        2.11418038
       48.01438      211.76900204        2.26370287
       48.11407      224.83075886        2.42062124
       48.21376      210.82174711        2.44611618
       48.31346      189.28259237        2.39879551
       48.41315      166.67719366        2.09695347
       48.51284      131.78856572        1.92487298
       48.61254      101.50015138        1.68115978
       48.71223       82.35699667        1.54126683
       48.81192       67.21488286        1.38868332
       48.91162       60.12047787        1.17727879
       49.01131       57.40591529        1.19075616
       49.11100       53.65414691        1.19257641
       49.21070       52.33422067        1.23653766
       49.31039       52.35681659        1.27290976
       49.41009       46.41936008        1.13203415
       49.50978       48.12421747        1.17655697
       49.60947       48.37423256        1.18825473
       49.70917       49.04324094        1.24083652
       49.80886       48.77936522        1.20437686
       49.90855       49.24879515        1.10239461
       50.00825       49.42817884        1.12773437
       50.10794       48.18755179        1.13878311
       50.20763       49.72654431        1.20868010
       50.30733       52.01333900        1.29496679
       50.40702       54.42814507        1.24235183
       50.50671       53.27947235        1.23273221
       50.60641       54.79997221        1.25203636
       50.70610       55.45540670        1.29601054
       50.80579       55.00644791        1.27370043
       50.90549       55.51041078        1.15361777
       51.00518       55.07301604        1.15923346
       51.10487       55.68734580        1.20498084
       51.20457       54.53683316        1.26943803
       51.30426       53.78008220        1.25400910
       51.40395       56.48040248        1.23211162
       51.50365       57.43383766        1.25670019
       51.60334       57.36031517        1.28069510
       51.70303       60.76620704        1.39998925
       51.80273       60.46158058        1.28093179
       51.90242       60.75215141        1.19967173
       52.00211       62.53006086        1.22293145
       52.10181       63.38746450        1.27029608
       52.20150       62.36879366        1.38760640
       52.30119       59.46250648        1.30503126
       52.40089       61.28884622        1.30425853
       52.50058       59.61867392        1.31058928
       52.60027       59.83818563        1.33094372
       52.69997       57.71368797        1.43236090
       52.79966       58.60760667        1.21355879
       52.89935       59.87574258        1.18359242
       52.99905       62.39067956        1.22798712
       53.09874       72.20250401        1.36393907
       53.19844       82.77128232        1.67268461
       53.29813       99.76928705        1.63267636
       53.39782      122.92052366        1.87587546
       53.49752      142.10412676        2.02709843
       53.59721      163.00963731        2.17069329
       53.69690      172.24913610        2.44892694
       53.79660      183.78890713        2.11976950
       53.89629      170.94594511        2.02141215
       53.99598      156.98770959        1.98363110
       54.09568      138.46371861        1.94437553
       54.19537      117.39500751        1.95140295
       54.29506      106.18854474        1.70458814
       54.39476       94.86424623        1.62318004
       54.49445       88.36582850        1.56750041
       54.59414       86.73736914        1.57664049
       54.69384       81.77515934        1.63290606
       54.79353       79.58911454        1.38135296
       54.89322       75.37472168        1.33927076
       54.99292       74.09181504        1.36667740
       55.09261       70.90552964        1.39025284
       55.19230       67.29553566        1.45433161
       55.29200       61.96059817        1.29864091
       55.39169       62.89237993        1.35008748
       55.49138       58.07197973        1.29230942
       55.59108       56.63055659        1.31704458
       55.69077       57.36724944        1.36044489
       55.79046       54.90369322        1.16349123
       55.89016       53.34701621        1.14407570
       55.98985       53.92668351        1.15767170
       56.08954       56.76209455        1.22697481
       56.18924       61.72036732        1.38100044
       56.28893       67.14382734        1.31847801
       56.38862       72.36404530        1.41597712
       56.48832       84.42371342        1.55620292
       56.58801       95.79806491        1.70613200
       56.68770      106.72266322        1.85914609
       56.78740      111.52672842        1.62673860
       56.88709      114.84303813        1.66742218
       56.98679      111.00317323        1.64065235
       57.08648      103.10577540        1.67589278
       57.18617       93.13178033        1.64881908
       57.28587       82.94685454        1.45349424
       57.38556       75.62452018        1.47714100
       57.48525       67.04576870        1.41721757
       57.58495       62.25420413        1.39675034
       57.68464       59.62656088        1.37877591
       57.78433       54.04982186        1.14814801
       57.88403       53.01411084        1.15030902
       57.98372       51.59531450        1.15282482
       58.08341       54.11228338        1.27662557
       58.18311       51.18311223        1.26993637
       58.28280       53.55437864        1.22363553
       58.38249       53.12077472        1.27337799
       58.48219       52.58878219        1.29432002
       58.58188       51.03368688        1.28891309
       58.68157       54.17394608        1.30144793
       58.78127       52.63175503        1.12199868
       58.88096       52.42093762        1.10321947
       58.98065       54.20327753        1.16460595
       59.08035       54.62197249        1.24750140
       59.18004       57.40174595        1.29739728
       59.27973       58.44630466        1.23520140
       59.37943       62.17268250        1.31612239
       59.47912       68.37698713        1.43709271
       59.57881       71.25135605        1.53690987
       59.67851       75.62086239        1.47632589
       59.77820       79.43242929        1.39104587
       59.87789       89.17451524        1.46902814
       59.97759       96.18041351        1.59620518
       60.07728       99.92905868        1.76205124
       60.17697      106.48354169        1.73310422
       60.27667      105.02688760        1.67332182
       60.37636      105.42897709        1.70906647
       60.47605      103.81448665        1.76918116
       60.57575      100.64750010        1.90898152
       60.67544       92.56613313        1.57247907
       60.77514       86.12000824        1.44170733
       60.87483       75.19453543        1.32060912
       60.97452       70.16210287        1.34372324
       61.07422       66.63764082        1.47096463
       61.17391       65.67550813        1.26493400
       61.27360       64.71715446        1.30021644
       61.37330       65.18883598        1.35336506
       61.47299       67.65815962        1.43947809
       61.57268       67.72091629        1.63770494
       61.67238       70.77015576        1.36463122
       61.77207       68.77594018        1.31009924
       61.87176       70.73271076        1.31389317
       61.97146       71.41734742        1.37072083
       62.07115       70.05254519        1.53745456
       62.17084       65.22268602        1.29951543
       62.27054       63.41778080        1.33602142
       62.37023       63.57843618        1.39101171
       62.46992       62.72110298        1.42891095
       62.56962       58.54799152        1.55034399
       62.66931       56.43073334        1.22606204
       62.76900       58.83134568        1.22025718
       62.86870       63.66952590        1.24190506
       62.96839       67.77020401        1.32226612
       63.06808       73.30093172        1.53056397
       63.16778       84.19847084        1.45661425
       63.26747      103.13709591        1.66927738
       63.36716      118.14428518        1.85495117
       63.46686      134.93171467        2.04290639
       63.56655      151.23592898        2.29890167
       63.66624      172.72473539        2.08957369
       63.76594      197.54691949        2.17233947
       63.86563      207.65877548        2.22087772
       63.96532      212.06833532        2.34863263
       64.06502      197.85676650        2.42904815
       64.16471      176.94978557        2.12328775
       64.26440      153.03440504        2.05408291
       64.36410      131.77393729        1.94343165
       64.46379      110.94075958        1.88480276
       64.56349       96.66572054        1.79005924
       64.66318       81.92594916        1.44187913
       64.76287       69.15123251        1.30798801
       64.86257       62.64989554        1.24294676
       64.96226       58.22579516        1.25501906
       65.06195       57.35508234        1.34688540
       65.16165       54.10195701        1.17992168
       65.26134       53.42909059        1.19998876
       65.36103       53.41641520        1.25201458
       65.46073       53.50881652        1.29427264
       65.56042       53.85560572        1.35617843
       65.66011       55.20459386        1.19730577
       65.75981       56.11937564        1.19514626
       65.85950       56.99971880        1.19682894
       65.95919       59.38822761        1.27890451
       66.05889       60.61093128        1.33641994
       66.15858       70.13207613        1.36741768
       66.25827       80.39897525        1.51458078
       66.35797       93.19269888        1.69926707
       66.45766      108.62630615        1.95007718
       66.55735      122.14712562        2.06796045
       66.65705      137.69444209        1.94828126
       66.75674      155.08091905        2.01562735
       66.85643      166.93896717        2.06795544
       66.95613      169.06889084        2.16369970
       67.05582      170.84195018        2.19132918
       67.15551      170.90463395        2.08568795
       67.25521      161.37812545        2.12676783
       67.35490      141.12486412        2.09260052
       67.45459      123.91058109        2.06717082
       67.55429      109.27407774        1.85943252
       67.65398       90.45396440        1.51580938
       67.75367       78.38789061        1.39923547
       67.85337       73.52180759        1.37170693
       67.95306       75.43702940        1.48592381
       68.05275       80.24955514        1.45144005
       68.15245       86.20040113        1.49158531
       68.25214       96.57908508        1.67621807
       68.35184      104.66346086        1.81890336
       68.45153      111.37579231        2.06586216
       68.55122      121.37344464        1.85830099
       68.65092      125.69402758        1.76271685
       68.75061      134.45518972        1.84233364
       68.85030      130.98299422        1.85310731
       68.95000      124.07938707        2.04438552
       69.04969      119.83225214        1.69654377
       69.14938      102.19825159        1.61025487
       69.24908       89.93416774        1.61270325
       69.34877       79.68057555        1.56965625
       69.44846       69.41464528        1.69892484
       69.54816       65.81065406        1.28973725
       69.64785       59.40416088        1.20794478
       69.74754       52.94589974        1.15166839
       69.84724       54.27766236        1.19656367
       69.94693       50.81471391        1.30646722
       70.04662       48.76078952        1.05235842
       70.14632       48.96794215        1.09664065
       70.24601       47.93909381        1.16176603
       70.34570       45.52461903        1.19791079
       70.44540       48.93247972        1.46347221
       70.54509       47.29355706        1.12609745
       70.64478       47.91672816        1.13190508
       70.74448       49.24297960        1.16570469
       70.84417       50.67881991        1.22720341
       70.94386       49.83169496        1.33577896
       71.04356       50.00303400        1.10725883
       71.14325       53.17521668        1.18670731
       71.24294       54.52339682        1.26439664
       71.34264       55.36159332        1.35100109
       71.44233       53.26977568        1.47870672
       71.54202       53.48055978        1.20624061
       71.64172       56.74618563        1.20879909
       71.74141       54.46777164        1.16269951
       71.84110       55.06136912        1.21014288
       71.94080       52.32423030        1.28536024
       72.04049       54.41880431        1.10957394
       72.14019       50.98900975        1.11891079
       72.23988       54.31032965        1.20839812
       72.33957       53.15459952        1.33529490
       72.43927       53.59487116        1.47599011
       72.53896       52.34921812        1.16954046
       72.63865       53.95638383        1.16065394
       72.73835       55.44302123        1.15071921
       72.83804       56.03323298        1.22159306
       72.93773       61.25467790        1.35696130
       73.03743       62.21516552        1.18709477
       73.13712       65.16287038        1.28132706
       73.23681       68.95317131        1.38493149
       73.33651       69.10695299        1.52561939
       73.43620       67.76717864        1.63628865
       73.53589       68.25825467        1.32477354
       73.63559       72.61358999        1.34513442
       73.73528       68.75563735        1.30278939
       73.83497       65.77262998        1.35073584
       73.93467       63.95117029        1.40240610
       74.03436       64.95218043        1.25084496
       74.13405       62.66021647        1.28070785
       74.23375       57.34293855        1.27594506
       74.33344       57.33099006        1.40449341
       74.43313       59.39130067        1.48345224
       74.53283       56.43420043        1.22849267
       74.63252       55.32662309        1.20751380
       74.73221       58.73524582        1.23821349
       74.83191       57.27115383        1.29693673
       74.93160       59.92508073        1.34169852
       75.03129       67.10042696        1.26248787
       75.13099       73.80090624        1.37169207
       75.23068       84.05113677        1.52737521
       75.33037       95.43466534        1.78959461
       75.43007      107.46067381        1.92709767
       75.52976      119.37907401        1.76481941
       75.62945      143.37535028        1.93382128
       75.72915      152.20657636        1.98502829
       75.82884      164.65772762        2.22372284
       75.92854      167.51333339        2.10563817
       76.02823      172.04281745        2.00153562
       76.12792      171.39573574        2.08795291
       76.22762      170.86218343        2.19940061
       76.32731      159.93794575        2.40232561
       76.42700      154.64139971        2.22909503
       76.52670      135.04652913        1.92045571
       76.62639      122.22901496        1.80320970
       76.72608      106.10463706        1.65134303
       76.82578       97.28245606        1.82147920
       76.92547       95.16120422        1.44289276
       77.02516       99.34481035        1.52824447
       77.12486      105.53247312        1.65498087
       77.22455      116.66173575        1.85345713
       77.32424      134.52959452        2.44665682
       77.42394      139.88775701        1.99243909
       77.52363      149.33980216        1.98995350
       77.62332      159.62627599        2.04860957
       77.72302      170.73582212        2.12424608
       77.82271      174.94277565        2.52203053
       77.92240      177.41125517        1.94494592
       78.02210      176.00453910        2.09023290
       78.12179      172.53553259        2.21012802
       78.22148      154.12775252        2.20758109
       78.32118      139.03978088        2.43175990
       78.42087      131.10850608        1.85801408
       78.52056      106.12999055        1.72487686
       78.62026       92.27598428        1.59505231
       78.71995       82.70278823        1.51468867
       78.81964       72.30293364        1.58143855
       78.91934       66.38716022        1.17401485
       79.01903       61.99752901        1.24372453
       79.11872       59.01726923        1.26278127
       79.21842       57.45508990        1.32910854
       79.31811       58.78627309        1.51446541
       79.41780       56.41202828        1.20338062
       79.51750       54.85018968        1.20565457
       79.61719       57.30809429        1.23610550
       79.71689       57.73140046        1.28812022
       79.81658       59.88787718        1.39084053
       79.91627       61.54222353        1.19518969
       80.01597       60.16412997        1.21458974
       80.11566       60.02548193        1.26821716
       80.21535       63.62941323        1.39594489
       80.31505       63.00901287        1.65129703
       80.41474       65.89639959        1.29776166
       80.51443       67.29293616        1.30576004
       80.61413       69.55754908        1.37167677
       80.71382       71.16261009        1.43528937
       80.81351       74.73104613        1.65291592
       80.91321       74.14630322        1.21403010
       81.01290       83.19644405        1.38851948
       81.11259       94.20592209        1.59507905
       81.21229      105.72158525        1.82803076
       81.31198      117.39257399        2.14918095
       81.41167      139.76452253        1.83698710
       81.51137      162.81187491        2.04059849
       81.61106      191.13591935        2.31026406
       81.71075      207.34963581        2.49121667
       81.81045      227.80390666        2.76777560
       81.91014      258.02100992        2.26670068
       82.00983      299.41573010        2.61295292
       82.10953      328.23335234        3.06301031
       82.20922      353.45348231        3.53760116
       82.30891      358.26478789        3.73492511
       82.40861      371.11450219        3.09250510
       82.50830      368.04757987        3.07141425
       82.60799      367.85249851        3.30767067
       82.70769      355.93111541        3.53938250
       82.80738      346.38063012        3.33499684
       82.90707      326.18507855        2.62631468
       83.00677      306.19238991        2.70974554
       83.10646      280.41869236        3.04908045
       83.20615      254.96830276        3.23397456
       83.30585      229.85510704        2.90696552
       83.40554      200.80912140        2.25734939
       83.50524      173.64713243        2.04699468
       83.60493      139.14427756        2.01686315
       83.70462      120.38633393        2.11457348
       83.80432      105.58227438        1.73013732
       83.90401       87.53580180        1.32106359
       84.00370       78.37758514        1.30374080
       84.10340       69.00862343        1.46165283
       84.20309       65.72306946        1.73171401
       84.30278       66.92847879        1.42138616
       84.40248       66.36460746        1.24922018
       84.50217       63.01282089        1.19407968
       84.60186       60.36052354        1.32137291
       84.70156       65.23844416        1.79795417
       84.80125       62.42035073        1.22431171
       84.90094       61.13876372        1.08842311
       85.00064       61.36009424        1.12343741
       85.10033       60.11845221        1.31598205
       85.20002       65.18418163        2.35063021
       85.29972       63.82963122        1.22696245
       85.39941       61.52885490        1.22809308
       85.49910       67.50573116        1.25121372
       85.59880       65.90412572        1.39007621
       85.69849       65.45146916        2.48704356
       85.79818       64.67894392        1.16558046
       85.89788       65.59317873        1.14578064
       85.99757       65.97500620        1.18072995
       86.09726       67.22865772        1.36853213
       86.19696       68.54857839        2.65427444
       86.29665       67.41732213        1.24562018
       86.39634       64.92757719        1.24350909
       86.49604       63.40635066        1.21020631
       86.59573       62.08503974        1.27589303
       86.69542       66.36426001        2.75845080
       86.79512       58.07605371        1.07085911
       86.89481       57.25814967        1.04827798
       86.99451       57.25185406        1.08652527
       87.09420       55.48201054        1.19281975
       87.19389       59.08880299        2.91629295
       87.29359       53.38634942        1.12319266
       87.39328       53.42099709        1.13873842
       87.49297       48.38539944        1.05187799
       87.59267       47.91910637        1.06736413
       87.69236       49.86460381        3.25827952
       87.79205       50.13830336        1.01778539
       87.89175       50.32219816        1.01144767
       87.99144       50.17257480        1.05236896
       88.09113       54.89753423        1.17022052
       88.19083       58.64690844        6.40131084
       88.29052       51.63858283        1.14197527
       88.39021       47.26497160        1.09965778
       88.48991       48.83122366        1.07276315
       88.58960       49.05175085        1.04122965
       88.68929       56.38126184        8.64995158
       88.78899       49.52636070        1.00989833
       88.88868       50.05659934        0.99313424
       88.98837       50.14414437        1.03385754
       89.08807       49.94193726        1.05680886
       89.18776       44.47904462        8.11331929
       89.28745       49.11014580        1.06471873
       89.38715       51.06452045        1.09692485
       89.48684       52.06771297        1.08398520
       89.58653       54.58456853        1.08742145
       89.68623       57.00257747        9.00941576
       89.78592       58.41257301        1.09319167
       89.88561       61.48120939        1.09963765
       89.98531       64.64740968        1.15635385
       90.08500       74.59234383        1.28868566
       90.18469       88.83197040       11.73473136
       90.28439       82.82412862        1.38724254
       90.38408       91.22931324        1.48077545
       90.48377       97.90718995        1.50552492
       90.58347      100.81642476        1.50382988
       90.68316      110.42283101       12.26358372
       90.78286      101.04513980        1.44113959
       90.88255      103.25092260        1.41760415
       90.98224      104.40691393        1.47493989
       91.08194      106.44893830        1.53826437
       91.18163      103.26535376       12.08859623
       91.28132      103.05961096        1.55818896
       91.38102      101.12025422        1.58431195
       91.48071       92.30584723        1.47608868
       91.58040       85.88477728        1.37670906
       91.68010      103.98739711       11.46775899
       91.77979       75.98790201        1.24268662
       91.87948       73.90681991        1.20654211
       91.97918       66.95377562        1.19220291
       92.07887       64.57981123        1.21958241
       92.17856       66.58782151        9.41668877
       92.27826       61.73294750        1.23138240
       92.37795       62.89463238        1.27245146
       92.47764       62.28906198        1.20208390
       92.57734       68.98293503        1.22749505
       92.67703       70.41455183        8.05064581
       92.77672       73.72592790        1.22325490
       92.87642       83.11879121        1.27445946
       92.97611       92.65444895        1.40552363
       93.07580      101.01851587        1.67548018
       93.17550       97.42949751        3.09370049
       93.27519      101.22292059        1.54589999
       93.37488      104.95841149        1.53040132
       93.47458      109.64584928        1.58165968
       93.57427      110.58396231        1.83646190
       93.67396      111.29898345        2.48989495
       93.77366      111.57952447        1.54440386
       93.87335      112.04663959        1.47831662
       93.97304      105.71950241        1.49613482
       94.07274       94.03849885        1.83122766
       94.17243       98.07474785        2.13413982
       94.27212       95.06079774        1.56476132
       94.37182       86.70032277        1.45598234
       94.47151       80.04239018        1.33944022
       94.57121       74.29842956        1.70279319
       94.67090       69.54804232        1.66626013
       94.77059       67.41564855        1.27519628
       94.87029       63.26964658        1.12320069
       94.96998       61.58502777        1.12212318
       95.06967       59.99320091        1.27667200
       95.16937       62.15840380        1.77903536
       95.26906       60.82526091        1.35947015
       95.36875       58.68630933        1.21160715
       95.46845       60.26008170        1.17998410
       95.56814       60.50991096        1.36062445
       95.66783       57.90769705        1.49523331
       95.76753       56.05298738        1.21558095
       95.86722       54.01054036        1.01490936
       95.96691       53.54508808        1.04815412
       96.06661       54.53643393        1.35512713
       96.16630       51.97180987        1.41058971
       96.26599       50.90169273        1.25364436
       96.36569       52.76061141        1.14529993
       96.46538       51.28408951        1.08968297
       96.56507       46.96337240        1.28685445
       96.66477       47.30446922        1.25850824
       96.76446       46.87072702        1.11944121
       96.86415       45.97303409        0.96029256
       96.96385       49.41293806        1.02839405
       97.06354       51.92253167        1.42560103
       97.16323       50.32101246        1.34183777
       97.26293       50.84221715        1.26719127
       97.36262       50.97932212        1.17504628
       97.46231       50.67414558        1.07776982
       97.56201       51.75739072        1.38581585
       97.66170       52.84415646        1.25776999
       97.76139       53.26560333        1.14723360
       97.86109       55.08374318        1.05500861
       97.96078       54.79303833        1.07519498
       98.06047       56.00386184        1.50990072
       98.16017       56.62829215        1.34973754
       98.25986       53.01803721        1.24730727
       98.35956       54.07564672        1.18930152
       98.45925       57.58031422        1.14563879
       98.55894       60.18036790        1.52794404
       98.65864       58.64602707        1.29410463
       98.75833       61.35565588        1.23690197
       98.85802       62.73350469        1.16786756
       98.95772       65.77710530        1.18800702
       99.05741       66.53595823        1.65877494
       99.15710       70.76968236        1.47144631
       99.25680       73.52441282        1.45317036
       99.35649       79.72940780        1.44156564
       99.45618       81.73620618        1.36030526
       99.55588       85.34069762        1.85749725
       99.65557       86.72543579        1.54487014
       99.75526       88.93617836        1.46640921
       99.85496       88.52028032        1.39240773
       99.95465       90.75000602        1.38228228
      100.05434       90.49593491        1.96639452
      100.15404       89.56320856        1.64766959
      100.25373       91.26648425        1.64344222
      100.35342       90.72556755        1.63212958
      100.45312       88.22418100        1.46851704
      100.55281       86.64664260        1.91133589
      100.65250       84.53623724        1.53789653
      100.75220       81.96567847        1.40257456
      100.85189       77.08203295        1.29940272
      100.95158       74.85435510        1.24617898
      101.05128       74.81245591        1.77617797
      101.15097       69.23980773        1.41196380
      101.25066       74.97743752        1.45197985
      101.35036       72.45505158        1.43959307
      101.45005       72.67815239        1.35583443
      101.54974       70.99718874        1.66899522
      101.64944       77.36094309        1.42172767
      101.74913       78.59655990        1.35028873
      101.84882       84.34233374        1.36186997
      101.94852       85.56794688        1.44499514
      102.04821       87.38028007        1.75889874
      102.14791       92.16491454        1.62826583
      102.24760       91.67918810        1.61022779
      102.34729       87.39329559        1.56548752
      102.44699       89.24870832        1.60962870
      102.54668       92.25331703        1.71739234
      102.64637       95.93151356        1.56432260
      102.74607       98.27721807        1.50803931
      102.84576       92.97196724        1.43865085
      102.94545       99.47002327        1.69523260
      103.04515       95.87773365        1.76169163
      103.14484       92.97585527        1.62069290
      103.24453       91.52459344        1.58310575
      103.34423       91.28524580        1.56822296
      103.44392       92.79030736        1.71278215
      103.54361       86.48377833        1.60598384
      103.64331       86.92671004        1.46563445
      103.74300       85.12066926        1.38333100
      103.84269       79.89489961        1.31675404
      103.94239       81.39142397        1.59720431
      104.04208       79.40219139        1.52608880
      104.14177       78.44659287        1.47573708
      104.24147       77.81314512        1.46898655
      104.34116       79.77793389        1.49675481
      104.44085       82.09577036        1.72460862
      104.54055       80.57917415        1.54687210
      104.64024       78.30540457        1.43327478
      104.73993       78.45657071        1.36904912
      104.83963       74.46661079        1.28483490
      104.93932       73.45905644        1.54697094
      105.03901       71.05403695        1.43344905
      105.13871       71.82392376        1.38773257
      105.23840       69.50219228        1.36422357
      105.33809       66.57640318        1.34294406
      105.43779       63.64316203        1.52760247
      105.53748       64.78549409        1.38223453
      105.63717       58.93940581        1.20821563
      105.73687       57.49651315        1.13562029
      105.83656       55.88800512        1.09092392
      105.93626       52.53924875        1.34025642
      106.03595       52.81451099        1.21790036
      106.13564       52.02310943        1.16823587
      106.23534       51.87374491        1.18091658
      106.33503       51.38025099        1.18713845
      106.43472       48.82094868        1.36794491
      106.53442       48.51660614        1.18611784
      106.63411       46.83497695        1.05857035
      106.73380       48.68521702        1.02872023
      106.83350       49.13278701        1.01802516
      106.93319       53.32583598        1.37504601
      107.03288       48.07243834        1.15688361
      107.13258       48.97445830        1.13343805
      107.23227       50.47224569        1.16740043
      107.33196       52.93573835        1.19237271
      107.43166       52.70286454        1.42952075
      107.53135       52.47708494        1.23073419
      107.63104       56.13502954        1.15920869
      107.73074       58.24490461        1.13294936
      107.83043       59.65725744        1.13216580
      107.93012       62.95843784        1.53876475
      108.02982       64.55350693        1.36384896
      108.12951       65.26126792        1.30408747
      108.22920       68.30929123        1.31294120
      108.32890       70.57138105        1.32188551
      108.42859       68.91623182        1.65779098
      108.52828       70.67494661        1.42413657
      108.62798       75.08069647        1.33119227
      108.72767       74.04033338        1.26879388
      108.82736       74.07802858        1.29708213
      108.92706       73.10516583        1.63186659
      109.02675       71.65230495        1.41328045
      109.12644       73.90034711        1.40096324
      109.22614       74.20145220        1.40493400
      109.32583       72.22730797        1.51033357
      109.42552       69.83620943        1.56639536
      109.52522       68.91816922        1.40383171
      109.62491       68.55296194        1.33172113
      109.72461       66.71896562        1.25597373
      109.82430       62.99272616        1.13986207
      109.92399       60.98740246        1.45814931
      110.02369       61.80685016        1.28549923
      110.12338       59.94147818        1.25762075
      110.22307       57.05475932        1.21765806
      110.32277       54.66043019        1.21695381
      110.42246       54.89424528        1.48285042
      110.52215       52.85747188        1.23231315
      110.62185       53.59277483        1.16948363
      110.72154       53.43442342        1.08945304
      110.82123       49.92306675        1.08741480
      110.92093       53.17892411        1.30913446
      111.02062       54.44146772        1.22377651
      111.12031       53.80017999        1.22560332
      111.22001       52.28945694        1.18557516
      111.31970       54.24980029        1.31066411
      111.41939       54.44039325        1.35862293
      111.51909       54.51146223        1.23359202
      111.61878       56.23790406        1.18039541
      111.71847       60.45770070        1.13884917
      111.81817       63.79175063        1.26982414
      111.91786       65.62639380        1.35550004
      112.01755       67.27087023        1.34012654
      112.11725       68.87887190        1.36639661
      112.21694       74.32083961        1.41324483
      112.31663       72.96187550        1.54294827
      112.41633       76.75689472        1.55490339
      112.51602       78.77001524        1.45063174
      112.61571       81.74487669        1.40982681
      112.71541       84.22420229        1.34871902
      112.81510       85.84615923        1.52686038
      112.91479       86.68970746        1.56300935
      113.01449       89.70478853        1.55713310
      113.11418       90.63994439        1.56004821
      113.21387       89.93822671        1.54689027
      113.31357       88.12096049        1.70038794
      113.41326       92.91571961        1.65961922
      113.51296       88.41556607        1.52260699
      113.61265       93.99648666        1.51511838
      113.71234       96.34394023        1.46527987
      113.81204       92.02984280        1.64041603
      113.91173       88.69826019        1.56037398
      114.01142       89.55246892        1.55212384
      114.11112       84.13868656        1.50339290
      114.21081       86.39674126        1.53457365
      114.31050       87.82830297        1.75471407
      114.41020       83.39022811        1.57970852
      114.50989       82.46415159        1.47058352
      114.60958       78.30344792        1.38653792
      114.70928       76.54768744        1.32212696
      114.80897       73.58355423        1.47006287
      114.90866       73.90711885        1.38962765
      115.00836       69.40354552        1.34011686
      115.10805       70.12495895        1.35443528
      115.20774       68.58926928        1.35972026
      115.30744       72.11880516        1.60107152
      115.40713       70.09949836        1.42963741
      115.50682       68.31071502        1.33227243
      115.60652       70.36243340        1.30324046
      115.70621       71.09393147        1.25903407
      115.80590       70.64956310        1.46414507
      115.90560       75.52568127        1.37231887
      116.00529       74.52388697        1.37834846
      116.10498       79.24213137        1.43640074
      116.20468       84.74219484        1.51981152
      116.30437       87.29678496        1.83897817
      116.40406       86.41251142        1.59349033
      116.50376       95.59379835        1.58432905
      116.60345      103.45047198        1.58253491
      116.70314      110.02299483        1.58288685
      116.80284      118.60567017        1.95334220
      116.90253      127.21631759        1.82034444
      117.00222      134.31408437        1.85610326
      117.10192      141.78495286        1.95863159
      117.20161      148.08231631        2.02646905
      117.30131      146.45348910        2.41140552
      117.40100      157.17058781        2.10092440
      117.50069      165.14392622        2.04593123
      117.60039      175.59222689        2.01968865
      117.70008      180.60948878        1.98473287
      117.79977      180.01060647        2.42799671
      117.89947      187.51343041        2.15483212
      117.99916      195.63211851        2.22786362
      118.09885      191.35725448        2.24436573
      118.19855      194.36256365        2.36935651
      118.29824      197.52285728        2.61875719
      118.39793      197.79354928        2.37927927
      118.49763      200.62478190        2.26140263
      118.59732      200.47755356        2.18252508
      118.69701      199.45587767        2.26774529
      118.79671      193.58126297        2.41181594
      118.89640      190.44222458        2.23011673
      118.99609      184.81170428        2.19412055
      119.09579      179.67841902        2.18825900
      119.19548      177.12838114        2.37378745
      119.29517      170.57914251        2.41960983
      119.39487      166.85967567        2.19959374
      119.49456      159.53101209        2.02627213
      119.59425      150.18843973        1.90871699
      119.69395      143.91871539        1.97080538
      119.79364      137.75455315        1.94820320
      119.89333      133.31871399        1.85461468
      119.99303      126.38696023        1.76263376
      120.09272      127.35861904        1.80978422
      120.19241      128.04873712        2.03978636
      120.29211      126.01125241        2.00271790
      120.39180      125.23172741        1.90470873
      120.49149      123.06927367        1.75598063
      120.59119      116.84471861        1.66034883
      120.69088      116.23282911        1.78264965
      120.79057      115.38201669        1.73793283
      120.89027      114.28144020        1.69802234
      120.98996      119.39629933        1.72257559
      121.08966      118.72006696        1.73050821
      121.18935      114.47873217        1.94756612
      121.28904      115.37143867        1.90564131
      121.38874      116.65417715        1.81212940
      121.48843      118.62791769        1.72610992
      121.58812      119.51286869        1.65245404
      121.68782      118.77239294        1.82491139
      121.78751      123.87511919        1.77624424
      121.88720      119.57922545        1.72260093
      121.98690      121.21333566        1.74742587
      122.08659      119.20181528        1.76744376
      122.18628      115.38870086        2.01700917
      122.28598      120.01912227        1.93477163
      122.38567      117.00466562        1.82938543
      122.48536      116.54515911        1.72704751
      122.58506      115.72038413        1.62985077
      122.68475      117.17872719        1.85861130
      122.78444      110.47543089        1.69889339
      122.88414      108.92543337        1.67252269
      122.98383      104.80831530        1.67398369
      123.08352      101.69562062        1.63466017
      123.18322      102.21824987        1.91145897
      123.28291       99.19494077        1.71115916
      123.38260      101.35907212        1.66994240
      123.48230       97.91444815        1.58173480
      123.58199       95.61014772        1.46078707
      123.68168       94.52449034        1.65735540
      123.78138       94.36706402        1.49402055
      123.88107       89.14596864        1.41826808
      123.98076       87.35286073        1.42981256
      124.08046       87.92732602        1.41942078
      124.18015       86.24178794        1.59102016
      124.27984       83.33219390        1.40105485
      124.37954       83.88071412        1.32644972
      124.47923       82.32843027        1.28284266
      124.57893       75.13027025        1.30529250
