        5.04651       54.87416863        2.52515628
        5.14621       52.90004786        2.38928221
        5.24590       49.70228057        2.28247283
        5.34559       52.10391763        2.14356538
        5.44529       51.74257025        2.32387429
        5.54498       53.09323653        1.98023518
        5.64467       53.21484937        1.96518236
        5.74437       52.72422900        1.76571883
        5.84406       51.81657903        1.77139854
        5.94375       48.70785896        1.71494950
        6.04345       48.20688097        1.65777366
        6.14314       51.46671036        1.56853939
        6.24283       47.69080675        1.55953986
        6.34253       51.02187802        1.53873160
        6.44222       49.56108158        1.59678398
        6.54191       50.93414324        1.53359284
        6.64161       48.18886147        1.41299958
        6.74130       48.76337908        1.42716787
        6.84099       46.77204682        1.38750660
        6.94069       51.36788462        1.47621267
        7.04038       48.09408225        1.31836137
        7.14007       48.33384940        1.31891452
        7.23977       48.70356798        1.30081868
        7.33946       49.96007236        1.33771818
        7.43915       48.72880797        1.30383561
        7.53885       46.60237594        1.25145024
        7.63854       45.84901966        1.18636916
        7.73823       46.40681249        1.23937278
        7.83793       45.48702059        1.18737175
        7.93762       47.74936424        1.26912872
        8.03732       47.48591876        1.13503326
        8.13701       46.43959816        1.11735079
        8.23670       45.27651246        1.11879182
        8.33640       47.94263991        1.15168538
        8.43609       47.42435996        1.19749171
        8.53578       47.01784838        1.11058694
        8.63548       46.56888360        1.09255085
        8.73517       46.32612483        1.06892125
        8.83486       46.49852611        1.07352283
        8.93456       47.17223615        1.07574401
        9.03425       44.45706677        1.01364805
        9.13394       46.64724924        1.04035181
        9.23364       47.65549319        1.06692638
        9.33333       43.40293852        1.03878551
        9.43302       47.54978295        1.08784160
        9.53272       45.81352803        1.03165667
        9.63241       46.09828464        1.06411908
        9.73210       47.26104533        1.07534030
        9.83180       47.56225962        1.12407389
        9.93149       45.28178103        1.08885632
       10.03118       45.91368892        1.05499626
       10.13088       47.20166318        1.04410678
       10.23057       47.62305891        1.09827860
       10.33026       45.74498782        1.11257271
       10.42996       46.96722684        1.11193969
       10.52965       48.25256094        1.09154637
       10.62934       48.87412084        1.10121767
       10.72904       49.02333273        1.11921441
       10.82873       46.54910776        1.08501477
       10.92842       49.00210357        1.13199406
       11.02812       47.99444546        1.06727912
       11.12781       48.81996856        1.11506236
       11.22750       50.89531629        1.14994341
       11.32720       52.44990478        1.19883893
       11.42689       50.69210859        1.13761787
       11.52658       52.46752431        1.14364641
       11.62628       54.24647885        1.17556426
       11.72597       57.59733841        1.23720254
       11.82567       57.63069079        1.27197626
       11.92536       61.50460143        1.22986398
       12.02505       68.11441087        1.30059240
       12.12475       72.64947004        1.34218385
       12.22444       80.35520087        1.49718340
       12.32413       93.33193922        1.63882082
       12.42383      102.96343615        1.63421245
       12.52352      119.58771495        1.75107979
       12.62321      139.42789455        1.94532642
       12.72291      158.74950548        2.02058640
       12.82260      188.94096105        2.39778636
       12.92229      205.72844242        2.27276891
       13.02199      241.37286188        2.44399964
       13.12168      265.24045269        2.60698806
       13.22137      298.24547860        2.85532062
       13.32107      324.77594537        3.07617542
       13.42076      343.23729487        3.04393346
       13.52045      361.77732829        3.16295300
       13.62015      367.13359460        3.08806170
       13.71984      350.50009613        3.14379084
       13.81953      319.07765168        3.04925950
       13.91923      285.08387125        2.70700304
       14.01892      218.03074215        2.30292271
       14.11861      169.31593147        2.11666630
       14.21831      132.90093230        1.87657968
       14.31800      106.08420909        1.76460183
       14.41769       82.24925381        1.49585317
       14.51739       71.20354512        1.35773700
       14.61708       60.33890826        1.25275179
       14.71677       54.66865080        1.21176568
       14.81647       54.80466000        1.27105167
       14.91616       52.14893923        1.14012110
       15.01585       50.17535422        1.13842797
       15.11555       49.46593035        1.14342504
       15.21524       48.26788160        1.16406733
       15.31493       48.40355722        1.19381877
       15.41463       47.01701514        1.13915614
       15.51432       47.20992949        1.10612951
       15.61402       47.34832587        1.13580592
       15.71371       48.41536932        1.14068666
       15.81340       45.00543539        1.14395943
       15.91310       47.70724859        1.14452272
       16.01279       47.22381914        1.09028412
       16.11248       46.03193689        1.10529736
       16.21218       46.04801804        1.13612663
       16.31187       46.71035984        1.14709302
       16.41156       48.39316485        1.14590011
       16.51126       48.32880112        1.16449765
       16.61095       50.31487264        1.14576135
       16.71064       50.34363294        1.18232473
       16.81034       51.61024397        1.20078191
       16.91003       53.69048797        1.18950904
       17.00972       53.60446068        1.14100324
       17.10942       57.03765379        1.24413677
       17.20911       59.64127248        1.28355279
       17.30880       63.22647504        1.33318744
       17.40850       68.69321696        1.38953815
       17.50819       73.47926718        1.39566893
       17.60788       72.91890943        1.43346431
       17.70758       77.00798711        1.47938959
       17.80727       73.90686180        1.46702943
       17.90696       71.62867857        1.35023159
       18.00666       68.10111690        1.33952416
       18.10635       62.48008465        1.24776193
       18.20604       61.25409064        1.35528647
       18.30574       59.07705213        1.26842889
       18.40543       53.44620809        1.17638704
       18.50512       53.57540901        1.21498761
       18.60482       53.37150237        1.19364589
       18.70451       51.09774878        1.23413713
       18.80420       49.97550235        1.14653711
       18.90390       52.69636621        1.16487804
       19.00359       49.07246552        1.09458659
       19.10328       50.30209221        1.17252998
       19.20298       46.41954280        1.16126037
       19.30267       47.78545441        1.13152468
       19.40237       45.47077667        1.09119822
       19.50206       44.84112763        1.11083631
       19.60175       46.22339560        1.11523552
       19.70145       45.09646832        1.15503880
       19.80114       44.32909269        1.08609505
       19.90083       45.10615371        1.05857784
       20.00053       47.16425961        1.10174559
       20.10022       47.20001244        1.11035038
       20.19991       47.69787212        1.19335328
       20.29961       49.11618220        1.14745377
       20.39930       48.88349273        1.17930405
       20.49899       50.10387949        1.17324243
       20.59869       48.60239305        1.17659423
       20.69838       49.65455856        1.23316274
       20.79807       51.01993215        1.19230926
       20.89777       51.48108994        1.17060924
       20.99746       55.99169394        1.23314958
       21.09715       52.46964831        1.25722783
       21.19685       60.23059881        1.34034856
       21.29654       59.13314086        1.29548560
       21.39623       56.37248366        1.26482726
       21.49593       54.16610225        1.22201227
       21.59562       52.95114610        1.23727108
       21.69531       50.64692090        1.25851092
       21.79501       48.94234057        1.13167900
       21.89470       46.58072778        1.07910551
       21.99439       46.34885028        1.12204472
       22.09409       43.85756105        1.09408129
       22.19378       46.09242753        1.19123410
       22.29347       47.15608239        1.12221938
       22.39317       43.84474969        1.11000373
       22.49286       45.22503766        1.12649426
       22.59255       45.98244841        1.14927482
       22.69225       49.97217317        1.26273374
       22.79194       51.80607389        1.15474862
       22.89163       53.02508154        1.14546280
       22.99133       58.92826377        1.24128625
       23.09102       59.39285440        1.29422159
       23.19072       64.72949004        1.35455751
       23.29041       67.54898980        1.36665093
       23.39010       68.16440661        1.38727473
       23.48980       66.45860093        1.37469718
       23.58949       65.10427911        1.37879821
       23.68918       60.70559315        1.39984095
       23.78888       54.94085985        1.18658485
       23.88857       52.67461589        1.17696438
       23.98826       48.61603812        1.15580475
       24.08796       46.18014389        1.10443397
       24.18765       43.95752916        1.15448911
       24.28734       45.24332158        1.11519747
       24.38704       46.40886714        1.14839541
       24.48673       43.99121646        1.11398932
       24.58642       44.35587041        1.15562398
       24.68612       43.58140867        1.14394611
       24.78581       43.84389758        1.05770500
       24.88550       45.93230888        1.08224107
       24.98520       45.52436701        1.11726247
       25.08489       45.89572323        1.14422444
       25.18458       45.11874937        1.15829753
       25.28428       47.84406116        1.14972421
       25.38397       48.62366562        1.15345507
       25.48366       49.05412096        1.16549792
       25.58336       52.80194431        1.26051290
       25.68305       59.57875800        1.31350984
       25.78274       70.03040853        1.34445994
       25.88244       83.08312717        1.50184137
       25.98213      106.28110212        1.71343672
       26.08182      129.98087861        1.94549395
       26.18152      155.29883697        2.17899353
       26.28121      175.89329929        2.19416524
       26.38090      195.91717376        2.33618719
       26.48060      199.63541467        2.42352861
       26.58029      185.97284806        2.43952760
       26.67998      174.01642485        2.22869185
       26.77968      148.75579143        2.03533769
       26.87937      114.82579752        1.76140440
       26.97907       93.63217099        1.57671258
       27.07876       80.64800793        1.57521002
       27.17845       76.75328360        1.46842254
       27.27815       76.78074651        1.43426208
       27.37784       82.60352584        1.54589444
       27.47753       87.81300617        1.57061938
       27.57723       83.46493179        1.60380814
       27.67692       81.25289493        1.54446483
       27.77661       80.56837860        1.46794452
       27.87631       71.63365410        1.36084261
       27.97600       63.80617631        1.31303600
       28.07569       57.18485369        1.31537530
       28.17539       51.65846955        1.19665691
       28.27508       48.90484848        1.16474295
       28.37477       51.51247394        1.22395866
       28.47447       48.65955652        1.18017324
       28.57416       48.83822255        1.27825779
       28.67385       51.86256205        1.17204802
       28.77355       53.01353471        1.16363954
       28.87324       54.08916683        1.20672885
       28.97293       56.16834025        1.23265943
       29.07263       56.94317055        1.35293270
       29.17232       59.93688335        1.26684313
       29.27201       55.63358968        1.24288469
       29.37171       54.49120613        1.26532899
       29.47140       53.48789678        1.23912228
       29.57109       51.54533276        1.28980376
       29.67079       47.26201248        1.12421199
       29.77048       46.83005155        1.12164237
       29.87017       45.04079684        1.07834777
       29.96987       46.67564516        1.15108169
       30.06956       47.91627408        1.20328242
       30.16925       44.18930818        1.08786807
       30.26895       46.93208351        1.12551279
       30.36864       46.75807936        1.14177592
       30.46833       48.93380383        1.17996260
       30.56803       53.77137374        1.30680926
       30.66772       54.03062367        1.21901162
       30.76742       57.90953623        1.23690202
       30.86711       60.66641040        1.29134096
       30.96680       63.18991065        1.32565165
       31.06650       62.25498811        1.37964948
       31.16619       61.57992807        1.29012361
       31.26588       59.16380414        1.25686556
       31.36558       56.86318791        1.24822719
       31.46527       58.08336401        1.31271429
       31.56496       57.31295327        1.32488012
       31.66466       63.97051114        1.30929129
       31.76435       69.85767575        1.36703418
       31.86404       78.11022396        1.42685710
       31.96374       84.00229732        1.51425187
       32.06343       84.88649307        1.57526054
       32.16312       88.03812629        1.50781693
       32.26282       82.64182012        1.49634814
       32.36251       76.67024210        1.49870912
       32.46220       72.19665596        1.48025932
       32.56190       68.89097351        1.47150628
       32.66159       69.72429517        1.40590703
       32.76128       65.39194746        1.33078966
       32.86098       66.82162222        1.36553398
       32.96067       61.34836529        1.32455386
       33.06036       61.93217176        1.35515413
       33.16006       57.61713784        1.23077800
       33.25975       55.03493050        1.24184757
       33.35944       56.94878628        1.27018767
       33.45914       57.32813101        1.32290294
       33.55883       56.78741677        1.31970419
       33.65852       61.24145131        1.27814527
       33.75822       65.52130252        1.31990844
       33.85791       73.10946008        1.40019620
       33.95760       81.53572981        1.52265244
       34.05730       91.47661745        1.59747502
       34.15699      103.59148243        1.67334108
       34.25668      122.79498213        1.81621659
       34.35638      147.97656424        2.04612066
       34.45607      181.59858250        2.38825135
       34.55577      229.07469459        2.55759765
       34.65546      291.45828081        2.76833599
       34.75515      365.13942804        3.15966673
       34.85485      423.46667252        3.37837449
       34.95454      447.09314671        3.58112777
       35.05423      425.47872905        3.61154991
       35.15393      390.85675566        3.25057090
       35.25362      314.46407008        2.95876153
       35.35331      248.71218260        2.69863453
       35.45301      186.51063362        2.43688879
       35.55270      145.76714257        2.09686238
       35.65239      109.24814658        1.75216109
       35.75209       90.51628033        1.58270104
       35.85178       79.11452409        1.47727438
       35.95147       71.91716485        1.44135767
       36.05117       72.01990639        1.41275953
       36.15086       64.95647255        1.28979825
       36.25055       61.23497087        1.30821978
       36.35025       61.65208707        1.33841220
       36.44994       58.86411373        1.33382222
       36.54963       56.93956510        1.25922820
       36.64933       55.71719856        1.22700065
       36.74902       55.02935064        1.23211690
       36.84871       54.61565578        1.21860416
       36.94841       53.12380349        1.29965586
       37.04810       50.87731975        1.12138833
       37.14779       48.01854981        1.11165531
       37.24749       49.36239844        1.15851127
       37.34718       48.24455799        1.17448863
       37.44687       48.02187830        1.25870835
       37.54657       47.93882637        1.14812075
       37.64626       46.69639579        1.12875087
       37.74595       46.75114404        1.11175565
       37.84565       45.71242873        1.16315399
       37.94534       45.85337635        1.18679046
       38.04503       46.79621959        1.08365986
       38.14473       47.25495201        1.09964769
       38.24442       47.32717949        1.12060350
       38.34412       49.25169571        1.19523961
       38.44381       46.17277930        1.25121865
       38.54350       50.50545724        1.16668603
       38.64320       50.62636711        1.16454621
       38.74289       51.61546797        1.19128769
       38.84258       52.81962312        1.20806880
       38.94228       54.65647974        1.28903158
       39.04197       62.17265032        1.23999692
       39.14166       61.05710625        1.27821747
       39.24136       66.49014066        1.33051056
       39.34105       69.68780921        1.40976869
       39.44074       71.41402020        1.55674288
       39.54044       71.74946799        1.39521762
       39.64013       68.24906551        1.35644296
       39.73982       64.31450119        1.32192885
       39.83952       64.72433776        1.31720814
       39.93921       61.22050702        1.35817658
       40.03890       59.95782091        1.23028941
       40.13860       58.48698660        1.21347524
       40.23829       59.14975751        1.26353423
       40.33798       54.57714672        1.25134601
       40.43768       55.53078067        1.32068190
       40.53737       57.76905898        1.25032081
       40.63706       56.36558315        1.26090797
       40.73676       56.05263764        1.25539175
       40.83645       60.31950550        1.31336554
       40.93614       60.17875313        1.33380041
       41.03584       65.03580004        1.30507325
       41.13553       73.23664035        1.38676189
       41.23522       93.06286973        1.60202657
       41.33492      115.65390094        1.87042952
       41.43461      141.43221722        2.13576975
       41.53430      165.60084958        2.16510373
       41.63400      192.62548356        2.38714844
       41.73369      206.86390697        2.42012021
       41.83338      214.63274691        2.53130657
       41.93308      213.22238567        2.50030152
       42.03277      223.52399432        2.34046154
       42.13247      251.44820464        2.61042978
       42.23216      299.51600184        2.85607074
       42.33185      356.01133099        3.34388901
       42.43155      417.57059989        3.56945681
       42.53124      475.45580238        3.68862855
       42.63093      522.96731142        3.87695659
       42.73063      540.22206044        3.95829656
       42.83032      527.61293609        3.98087817
       42.93001      492.93606925        3.70273910
       43.02971      420.98546304        3.23087412
       43.12940      339.40847468        2.95826622
       43.22909      260.09206775        2.71992626
       43.32879      202.23205405        2.52533865
       43.42848      154.60738351        2.15825702
       43.52817      117.50992617        1.79925059
       43.62787       86.62105655        1.53863469
       43.72756       71.97599763        1.43531531
       43.82725       67.32107038        1.44938271
       43.92695       61.57971283        1.25684445
       44.02664       57.62582040        1.20987929
       44.12633       55.98097274        1.23688008
       44.22603       57.06159720        1.29984217
       44.32572       55.61900967        1.35248721
       44.42541       54.60428108        1.27941083
       44.52511       54.02082156        1.23830325
       44.62480       53.26717717        1.24698410
       44.72449       56.87690306        1.24885595
       44.82419       60.45951603        1.44496966
       44.92388       64.71684392        1.24696102
       45.02357       76.12645621        1.36391811
       45.12327       88.00035331        1.51081621
       45.22296      105.27188385        1.69651606
       45.32265      126.88603030        2.06114283
       45.42235      150.89846840        2.04741430
       45.52204      177.71898390        2.20044905
       45.62174      203.65386678        2.39919767
       45.72143      222.16011815        2.50626548
       45.82112      228.60210834        2.78309887
       45.92082      229.14527476        2.36545836
       46.02051      234.36714377        2.44388176
       46.12020      223.43695274        2.39344028
       46.21990      214.98224153        2.46696680
       46.31959      198.04721068        2.55625408
       46.41928      178.93305783        2.24360035
       46.51898      150.45479261        2.06768299
       46.61867      127.10154528        1.89013726
       46.71836      104.11970387        1.75385557
       46.81806       84.42217089        1.63677333
       46.91775       72.63071594        1.32295702
       47.01744       64.88178023        1.27992905
       47.11714       64.11548589        1.30137072
       47.21683       69.42843663        1.39429011
       47.31652       74.70447061        1.57799653
       47.41622       87.25549198        1.60761908
       47.51591      102.65728719        1.74748205
       47.61560      116.11012506        1.84321983
       47.71530      134.89020792        2.00880893
       47.81499      144.58162576        2.13214121
       47.91468      158.60518901        1.95397989
       48.01438      170.23997836        2.02570606
       48.11407      177.07140611        2.14356600
       48.21376      171.54667412        2.20243000
       48.31346      171.75036469        2.28248226
       48.41315      157.56348028        2.03716581
       48.51284      140.65234935        1.98818783
       48.61254      122.67153185        1.84865401
       48.71223      103.74174742        1.73027789
       48.81192       90.10888331        1.60838109
       48.91162       74.94295253        1.31445252
       49.01131       65.35219852        1.27022563
       49.11100       56.78151942        1.22636733
       49.21070       53.88982538        1.25422739
       49.31039       53.51816381        1.28636434
       49.41009       50.97250798        1.18585666
       49.50978       51.78029181        1.21998333
       49.60947       47.85285178        1.18122598
       49.70917       49.40074215        1.24474892
       49.80886       51.38764897        1.23565776
       49.90855       49.11672539        1.10036438
       50.00825       50.60956585        1.14061341
       50.10794       50.15160825        1.16126314
       50.20763       50.08617558        1.21245673
       50.30733       53.09101222        1.30771430
       50.40702       52.54740799        1.22001267
       50.50671       56.81737681        1.27253036
       50.60641       55.29622159        1.25709109
       50.70610       58.05150854        1.32546337
       50.80579       56.84739640        1.29428111
       50.90549       56.06063661        1.15876885
       51.00518       57.75368103        1.18663456
       51.10487       56.04436601        1.20825330
       51.20457       57.01461066        1.29742481
       51.30426       57.05455335        1.29112967
       51.40395       57.42265254        1.24177206
       51.50365       57.28172691        1.25440615
       51.60334       59.47036313        1.30348865
       51.70303       60.86251704        1.40040871
       51.80273       59.54610380        1.27052631
       51.90242       61.94711815        1.21086345
       52.00211       62.99482536        1.22687976
       52.10181       64.08871191        1.27670202
       52.20150       63.50185075        1.39951615
       52.30119       65.97022214        1.37422408
       52.40089       62.36442586        1.31505110
       52.50058       61.17152886        1.32696237
       52.60027       58.85583488        1.31927381
       52.69997       61.48325957        1.47786192
       52.79966       57.78125946        1.20434078
       52.89935       66.71253500        1.24902102
       52.99905       71.72011211        1.31638180
       53.09874       84.09746294        1.47189545
       53.19844       93.25832602        1.77526519
       53.29813      111.34094902        1.72461016
       53.39782      123.05247318        1.87596471
       53.49752      133.59902413        1.96394664
       53.59721      142.20597481        2.02498025
       53.69690      147.85643469        2.26586087
       53.79660      154.55047667        1.94091636
       53.89629      152.79741000        1.90894832
       53.99598      147.82756762        1.92332530
       54.09568      134.90390245        1.91803332
       54.19537      123.68449553        2.00244774
       54.29506      113.08601474        1.75863482
       54.39476      103.05417865        1.69144717
       54.49445       98.23961107        1.65251221
       54.59414       89.41952999        1.60019105
       54.69384       90.58125232        1.71826129
       54.79353       88.48759130        1.45626347
       54.89322       83.57519407        1.40995250
       54.99292       80.04867388        1.42014909
       55.09261       76.21258309        1.44089752
       55.19230       70.59077777        1.48894798
       55.29200       65.94668024        1.33928645
       55.39169       62.99755153        1.35055138
       55.49138       56.72879681        1.27658321
       55.59108       57.13760052        1.32229544
       55.69077       55.79371168        1.34091786
       55.79046       55.51806065        1.16942812
       55.89016       56.49542069        1.17689884
       55.98985       56.24441720        1.18179836
       56.08954       60.89745009        1.27043939
       56.18924       66.12506408        1.42894249
       56.28893       71.14176513        1.35668221
       56.38862       81.38968715        1.50142054
       56.48832       96.61398152        1.66465869
       56.58801      103.64666340        1.77425870
       56.68770      110.48177395        1.89092047
       56.78740      114.16257744        1.64518924
       56.88709      117.54333113        1.68623828
       56.98679      108.46612326        1.62084970
       57.08648       95.72664970        1.61359283
       57.18617       90.01372889        1.62000390
       57.28587       77.19794115        1.40124300
       57.38556       65.86873110        1.37741911
       57.48525       63.13222938        1.37436278
       57.58495       55.86846616        1.32222351
       57.68464       55.24643371        1.32630567
       57.78433       52.80366701        1.13422274
       57.88403       54.12605386        1.16177924
       57.98372       52.95882318        1.16743531
       58.08341       51.39865656        1.24346795
       58.18311       50.61505902        1.26221806
       58.28280       52.07192123        1.20591952
       58.38249       53.85086055        1.28149603
       58.48219       50.91737835        1.27287911
       58.58188       53.22387392        1.31572924
       58.68157       54.24148923        1.30161648
       58.78127       54.20445852        1.13813719
       58.88096       54.09567401        1.12021413
       58.98065       53.52669606        1.15671331
       59.08035       59.96643529        1.30670605
       59.18004       56.80323386        1.28994886
       59.27973       59.65486687        1.24734154
       59.37943       63.45655801        1.32904331
       59.47912       68.53641114        1.43806257
       59.57881       72.28888958        1.54734932
       59.67851       77.98849257        1.49864177
       59.77820       81.60205349        1.40932528
       59.87789       94.09267792        1.50850899
       59.97759      101.84247406        1.64203169
       60.07728      102.59525768        1.78468794
       60.17697      108.27104090        1.74683659
       60.27667      107.74942228        1.69419592
       60.37636      104.54696680        1.70100911
       60.47605      105.24650652        1.78055095
       60.57575      100.55228809        1.90712912
       60.67544       95.26236775        1.59457839
       60.77514       87.53309426        1.45284044
       60.87483       77.07801716        1.33647292
       60.97452       70.63917472        1.34763883
       61.07422       66.75814678        1.47157104
       61.17391       66.41903550        1.27147731
       61.27360       69.34491747        1.34545394
       61.37330       67.22824825        1.37378966
       61.47299       69.31849573        1.45639697
       61.57268       69.53459215        1.65877424
       61.67238       70.03251941        1.35679339
       61.77207       69.10429388        1.31258769
       61.87176       71.05307079        1.31622799
       61.97146       70.44077053        1.36059595
       62.07115       70.36692801        1.54015459
       62.17084       66.27809406        1.30938709
       62.27054       64.25437410        1.34417814
       62.37023       67.40934996        1.43178995
       62.46992       66.76303358        1.47371310
       62.56962       66.05941449        1.64641397
       62.66931       68.90186612        1.35470752
       62.76900       75.46441351        1.38215628
       62.86870       83.60875626        1.42343629
       62.96839       93.69763934        1.55540954
       63.06808       98.91988993        1.77874926
       63.16778      105.24695335        1.62893431
       63.26747      111.29443619        1.73367450
       63.36716      117.89668732        1.85207581
       63.46686      119.63602296        1.92165478
       63.56655      123.67761655        2.07589417
       63.66624      129.31617596        1.80440223
       63.76594      147.56254290        1.87330580
       63.86563      157.71668368        1.93115752
       63.96532      169.78330540        2.09734865
       64.06502      174.92442507        2.28099813
       64.16471      169.41485396        2.07602076
       64.26440      162.64486150        2.11726768
       64.36410      149.55587129        2.07067806
       64.46379      133.80108641        2.07054128
       64.56349      124.15035315        2.02959530
       64.66318      106.32513961        1.64321190
       64.76287       88.69378198        1.48160986
       64.86257       73.90493552        1.34985135
       64.96226       62.72315139        1.30214712
       65.06195       62.37672611        1.40416292
       65.16165       54.80563648        1.18701092
       65.26134       53.65703083        1.20195920
       65.36103       54.56341072        1.26480904
       65.46073       50.98460906        1.26263736
       65.56042       54.35190403        1.36176131
       65.66011       56.17150388        1.20718810
       65.75981       57.40398211        1.20820320
       65.85950       61.04623714        1.23814576
       65.95919       62.94847233        1.31619345
       66.05889       63.82414611        1.37086241
       66.15858       69.82039206        1.36368512
       66.25827       77.49865626        1.48612381
       66.35797       86.04734667        1.63160705
       66.45766      100.52531287        1.87449341
       66.55735      107.95725619        1.94220882
       66.65705      122.93745876        1.83906380
       66.75674      141.78181228        1.92541906
       66.85643      155.71859804        1.99548488
       66.95613      165.19243062        2.13740938
       67.05582      167.88872545        2.17101431
       67.15551      167.17834654        2.06154228
       67.25521      162.46927675        2.13297715
       67.35490      152.35522390        2.17405221
       67.45459      134.86590711        2.15638228
       67.55429      123.79470277        1.97915422
       67.65398      103.50123720        1.62139136
       67.75367       86.17797932        1.46679182
       67.85337       79.95722079        1.43009659
       67.95306       74.52587056        1.47614432
       68.05275       74.69888233        1.39937804
       68.15245       83.72819732        1.46918570
       68.25214       90.86146435        1.62471373
       68.35184       94.60179432        1.72780074
       68.45153      102.57492995        1.98096977
       68.55122      108.26188649        1.75338722
       68.65092      116.86033118        1.69828251
       68.75061      124.88082934        1.77405657
       68.85030      128.54069824        1.83468730
       68.95000      128.22674611        2.07754838
       69.04969      126.82340529        1.74489797
       69.14938      116.81861284        1.72161958
       69.24908      103.93782180        1.73371533
       69.34877       90.99855334        1.67727182
       69.44846       84.71796666        1.87696038
       69.54816       77.49213512        1.39941122
       69.64785       67.29526298        1.28539416
       69.74754       60.41579290        1.22994435
       69.84724       55.91014338        1.21389236
       69.94693       54.07344618        1.34719442
       70.04662       50.44799382        1.06994304
       70.14632       47.54286533        1.07997532
       70.24601       47.18327926        1.15196902
       70.34570       48.14938539        1.23146308
       70.44540       51.54578011        1.50143660
       70.54509       51.09496349        1.17005635
       70.64478       50.48233078        1.16134154
       70.74448       49.07746688        1.16316007
       70.84417       50.67445495        1.22654185
       70.94386       50.89499466        1.34933617
       71.04356       51.15549172        1.11943615
       71.14325       51.88851905        1.17162749
       71.24294       54.68435664        1.26564103
       71.34264       54.41804684        1.33873033
       71.44233       56.03250642        1.51596282
       71.54202       56.58423194        1.24026880
       71.64172       53.61313025        1.17424332
       71.74141       51.96854458        1.13504833
       71.84110       52.18826715        1.17744401
       71.94080       52.90930020        1.29191225
       72.04049       52.52475154        1.08948037
       72.14019       50.51885157        1.11316952
       72.23988       52.57057641        1.18822369
       72.33957       53.08549058        1.33376173
       72.43927       51.38909976        1.44446892
       72.53896       55.27164811        1.20127021
       72.63865       52.25779284        1.14160405
       72.73835       56.92608322        1.16549101
       72.83804       56.90447426        1.23048105
       72.93773       58.64611195        1.32697360
       73.03743       59.89466930        1.16407405
       73.13712       61.32706081        1.24225886
       73.23681       64.28310415        1.33632789
       73.33651       63.12139558        1.45702482
       73.43620       64.34502536        1.59345651
       73.53589       64.89363034        1.29091751
       73.63559       65.79747080        1.27950513
       73.73528       65.97492295        1.27541595
       73.83497       64.28870874        1.33468043
       73.93467       65.43155926        1.41791635
       74.03436       63.80565996        1.23909181
       74.13405       63.01542774        1.28371251
       74.23375       64.98044509        1.35795343
       74.33344       65.14703904        1.49684418
       74.43313       64.37411016        1.54393395
       74.53283       65.20489199        1.32026263
       74.63252       66.88096501        1.32750973
       74.73221       69.82961445        1.34995833
       74.83191       73.98146498        1.47418688
       74.93160       76.70873042        1.51814898
       75.03129       78.84113651        1.36837559
       75.13099       84.20254314        1.46498189
       75.23068       90.77569207        1.58688884
       75.33037       95.98230578        1.79386930
       75.43007      100.03908560        1.85795867
       75.52976      107.92872811        1.67654724
       75.62945      119.20437453        1.76093451
       75.72915      126.17066612        1.80475880
       75.82884      132.77868658        1.99367961
       75.92854      137.82546994        1.90703588
       76.02823      146.06029638        1.84163168
       76.12792      151.60661247        1.96139718
       76.22762      150.13752240        2.05919525
       76.32731      153.92102648        2.35504868
       76.42700      150.86769404        2.20035430
       76.52670      146.72711356        2.00161862
       76.62639      141.59166244        1.94114663
       76.72608      134.46233226        1.85989274
       76.82578      125.95132491        2.07362711
       76.92547      121.05965459        1.62811087
       77.02516      122.99457950        1.70101872
       77.12486      123.47748998        1.79041102
       77.22455      124.78143432        1.91647255
       77.32424      129.55928960        2.39943291
       77.42394      134.56816337        1.95286107
       77.52363      131.57784300        1.86578833
       77.62332      133.63086999        1.87176498
       77.72302      143.84882465        1.94703377
       77.82271      145.52586809        2.29674071
       77.92240      149.27884764        1.78145667
       78.02210      145.22936534        1.89574052
       78.12179      142.16408741        2.00307869
       78.22148      138.10896066        2.08751550
       78.32118      133.78265589        2.38372955
       78.42087      128.97457568        1.84178501
       78.52056      121.38443800        1.84475407
       78.62026      112.25947760        1.75967374
       78.71995      107.43987927        1.72706498
       78.81964      102.61554223        1.88507546
       78.91934       94.00665183        1.39771183
       79.01903       82.35031891        1.43372396
       79.11872       76.35046487        1.43646216
       79.21842       73.01127172        1.49835170
       79.31811       66.93007449        1.61562787
       79.41780       67.35444165        1.31477776
       79.51750       63.79530505        1.30001902
       79.61719       65.28329562        1.31903187
       79.71689       65.92785471        1.37624232
       79.81658       61.64002480        1.41042766
       79.91627       65.31827644        1.23086413
       80.01597       65.48032063        1.26672471
       80.11566       65.26638497        1.32201225
       80.21535       63.52096828        1.39405849
       80.31505       65.86417079        1.68762877
       80.41474       67.34716777        1.31138668
       80.51443       66.85224380        1.30081258
       80.61413       74.50401982        1.41915553
       80.71382       77.54733152        1.49788838
       80.81351       83.24587804        1.74420150
       80.91321       91.21082556        1.34664620
       81.01290      108.14008013        1.58364817
       81.11259      125.73236624        1.84387962
       81.21229      138.69057832        2.09513876
       81.31198      159.09963311        2.50442181
       81.41167      176.78209368        2.06764120
       81.51137      197.92204782        2.25154462
       81.61106      209.92832450        2.42157203
       81.71075      226.71602275        2.60543939
       81.81045      239.28501847        2.83640884
       81.91014      253.10036056        2.24350194
       82.00983      270.11599518        2.47808632
       82.10953      287.20206124        2.85971393
       82.20922      289.93646575        3.19542792
       82.30891      290.63813959        3.35451341
       82.40861      295.55730882        2.75126531
       82.50830      288.28262360        2.70948760
       82.60799      289.85211266        2.92679103
       82.70769      286.62763881        3.16702506
       82.80738      282.15980522        3.00185630
       82.90707      278.05440256        2.41960374
       83.00677      269.26785462        2.53662310
       83.10646      265.31768088        2.96284470
       83.20615      255.23363370        3.23410492
       83.30585      238.56316327        2.96096577
       83.40554      220.13315182        2.36390050
       83.50524      205.88116263        2.23031582
       83.60493      189.47119948        2.35649036
       83.70462      172.25525358        2.53276483
       83.80432      153.88644617        2.09125077
       83.90401      134.14794989        1.63726378
       84.00370      113.38671368        1.56926288
       84.10340       97.81964746        1.74112738
       84.20309       86.01462807        1.98151945
       84.30278       81.74244732        1.57087520
       84.40248       76.81647151        1.34382437
       84.50217       71.70602093        1.27354522
       84.60186       64.72817527        1.36787726
       84.70156       61.84477334        1.74948901
       84.80125       64.68757327        1.24582998
       84.90094       67.36680519        1.14220067
       85.00064       64.17897900        1.14849774
       85.10033       68.32687079        1.40265905
       85.20002       63.67374900        2.32196207
       85.29972       65.98176696        1.24695212
       85.39941       66.25351541        1.27395284
       85.49910       66.09319855        1.23737918
       85.59880       66.43958236        1.39504676
       85.69849       63.95057945        2.45701490
       85.79818       65.64655748        1.17372506
       85.89788       63.78199478        1.12921933
       85.99757       65.89318439        1.17940965
       86.09726       64.33400012        1.33794612
       86.19696       66.50118154        2.61285212
       86.29665       63.52835776        1.20839540
       86.39634       61.32674900        1.20778341
       86.49604       62.41134242        1.20003622
       86.59573       59.34595567        1.24669208
       86.69542       51.09268381        2.41784592
       86.79512       55.44519430        1.04570739
       86.89481       57.04957717        1.04584066
       86.99451       53.01541325        1.04487894
       87.09420       52.88491563        1.16388358
       87.19389       54.18224792        2.79072273
       87.29359       52.99498589        1.11849790
       87.39328       52.87974175        1.13237165
       87.49297       49.19475396        1.06014324
       87.59267       49.04314263        1.07931734
       87.69236       45.24622672        3.10168142
       87.79205       49.61398036        1.01192887
       87.89175       48.84164831        0.99591136
       87.99144       50.13852434        1.05148884
       88.09113       49.63174812        1.11192403
       88.19083       57.52354066        6.33631383
       88.29052       48.48141467        1.10584294
       88.39021       51.23322179        1.14448204
       88.48991       49.76205176        1.08243791
       88.58960       50.24198345        1.05330815
       88.68929       31.80610477        6.48798409
       88.78899       49.98083028        1.01403444
       88.88868       50.19773097        0.99404505
       88.98837       50.06302233        1.03250570
       89.08807       49.46411448        1.05120189
       89.18776       55.32047942        9.04720220
       89.28745       48.92475760        1.06217322
       89.38715       52.36060060        1.11025820
       89.48684       52.57055188        1.08868610
       89.58653       56.06249001        1.10155558
       89.68623       55.33906638        8.87206106
       89.78592       59.49880288        1.10280464
       89.88561       61.95564070        1.10334374
       89.98531       61.86937675        1.13056455
       90.08500       69.15420595        1.23996945
       90.18469       53.68388540        9.10664276
       90.28439       74.05058136        1.31065748
       90.38408       82.31198606        1.40540848
       90.48377       83.13677930        1.38591647
       90.58347       89.35091561        1.41446735
       90.68316       84.22761390       10.69549689
       90.78286       92.85973144        1.38045573
       90.88255       94.08385183        1.35210699
       90.98224       96.36124027        1.41587050
       91.08194      101.90596426        1.50409842
       91.18163       74.88853987       10.27917690
       91.28132      100.54094182        1.53813447
       91.38102      100.18429960        1.57613178
       91.48071       95.22519339        1.49866151
       91.58040       90.51351077        1.41285171
       91.68010       77.62683248        9.89411803
       91.77979       85.86732803        1.32080673
       91.87948       85.13472605        1.29482206
       91.97918       78.58328400        1.29148788
       92.07887       77.89632091        1.33939792
       92.17856       81.59323326       10.42418404
       92.27826       78.96286845        1.39281706
       92.37795       74.08792059        1.38090583
       92.47764       77.29489892        1.33911692
       92.57734       78.40514049        1.30842873
       92.67703       83.76184587        8.78034308
       92.77672       81.45277693        1.28547254
       92.87642       83.43022501        1.27622710
       92.97611       85.60238572        1.34997429
       93.07580       90.03020903        1.58034017
       93.17550       86.96173969        2.92026757
       93.27519       90.63856968        1.46157904
       93.37488       93.08092262        1.43989634
       93.47458       95.54896090        1.47502837
       93.57427       97.93255494        1.72660073
       93.67396       95.53777877        2.30445424
       93.77366       99.51832304        1.45720856
       93.87335       97.48847963        1.37755253
       93.97304       98.57085766        1.44358983
       94.07274       89.34166107        1.78373383
       94.17243       85.16985586        1.98689778
       94.27212       89.94837821        1.52107722
       94.37182       89.43281579        1.47815869
       94.47151       85.90021042        1.38718677
       94.57121       85.63678547        1.82793372
       94.67090       84.82567794        1.84027344
       94.77059       84.52768653        1.42804710
       94.87029       79.89590692        1.26229504
       94.96998       72.34708027        1.21608183
       95.06967       67.89512238        1.35785438
       95.16937       69.19358465        1.87654907
       95.26906       63.23317925        1.38554863
       95.36875       66.03974179        1.28497095
       95.46845       61.90116700        1.19542011
       95.56814       61.09284357        1.36651323
       95.66783       56.76781767        1.47965059
       95.76753       58.27884065        1.23896400
       95.86722       55.56914902        1.02899524
       95.96691       54.07255051        1.05280141
       96.06661       53.91859924        1.34673194
       96.16630       52.65734723        1.41919274
       96.26599       51.80797102        1.26416859
       96.36569       50.22075893        1.11673903
       96.46538       49.58566523        1.07089159
       96.56507       48.52607758        1.30751249
       96.66477       45.22797084        1.22987583
       96.76446       46.61903543        1.11586785
       96.86415       46.25263805        0.96274004
       96.96385       48.73675620        1.02080254
       97.06354       49.35878488        1.38914524
       97.16323       48.66383728        1.31882664
       97.26293       47.96786210        1.23011494
       97.36262       47.12563278        1.12904728
       97.46231       48.50655471        1.05386362
       97.56201       48.36798022        1.33884723
       97.66170       49.57056454        1.21744453
       97.76139       51.31778205        1.12542662
       97.86109       53.52197899        1.03937224
       97.96078       54.41800971        1.07096375
       98.06047       55.15696307        1.49765329
       98.16017       58.81153276        1.37493426
       98.25986       57.47479440        1.29823460
       98.35956       57.50532037        1.22597681
       98.45925       62.93342508        1.19734133
       98.55894       62.55065877        1.55710166
       98.65864       63.51582556        1.34632614
       98.75833       68.57442094        1.30732695
       98.85802       68.63568071        1.22121978
       98.95772       71.97057012        1.24233471
       99.05741       71.31159595        1.71671098
       99.15710       74.95622746        1.51381759
       99.25680       72.64522855        1.44369613
       99.35649       78.42514063        1.42895288
       99.45618       83.86428011        1.37732116
       99.55588       85.37227792        1.85692394
       99.65557       83.98997161        1.51941289
       99.75526       84.23920358        1.42621997
       99.85496       86.54759210        1.37602894
       99.95465       84.63572037        1.33395778
      100.05434       84.03758846        1.89356178
      100.15404       85.26839321        1.60664134
      100.25373       84.38326958        1.57909061
      100.35342       84.71539933        1.57602967
      100.45312       84.95902827        1.44020805
      100.55281       87.53154733        1.92018068
      100.65250       81.74392441        1.51138758
      100.75220       80.08959779        1.38565271
      100.85189       78.08377051        1.30721757
      100.95158       79.33383705        1.28249158
      101.05128       79.27013395        1.82771045
      101.15097       76.73254865        1.48605489
      101.25066       79.62135941        1.49577410
      101.35036       77.01891512        1.48374335
      101.45005       76.96489243        1.39476646
      101.54974       74.98465978        1.71461484
      101.64944       75.89102192        1.40738613
      101.74913       75.37913091        1.32155816
      101.84882       76.71263005        1.29782103
      101.94852       77.19335351        1.37138048
      102.04821       79.40354428        1.67539558
      102.14791       79.57734720        1.51157674
      102.24760       81.65333959        1.51834693
      102.34729       77.92616006        1.47704157
      102.44699       85.72737601        1.57657960
      102.54668       81.39437073        1.61174043
      102.64637       83.43943830        1.45755818
      102.74607       84.12220766        1.39383311
      102.84576       87.14538976        1.39186744
      102.94545       87.42860683        1.58785737
      103.04515       85.66798159        1.66383279
      103.14484       84.88944155        1.54740585
      103.24453       86.17898463        1.53513047
      103.34423       85.59737685        1.51752583
      103.44392       84.52817044        1.63346798
      103.54361       86.45241981        1.60489666
      103.64331       82.81042860        1.42959765
      103.74300       85.50801374        1.38580789
      103.84269       83.97238776        1.34946214
      103.94239       85.66549362        1.63803980
      104.04208       82.32951860        1.55335634
      104.14177       84.99217297        1.53566475
      104.24147       82.50138590        1.51209328
      104.34116       82.19681238        1.51865366
      104.44085       81.73176454        1.71990755
      104.54055       79.54866265        1.53613272
      104.64024       80.93673670        1.45657096
      104.73993       76.39761803        1.35019914
      104.83963       72.92810550        1.27079480
      104.93932       74.88230276        1.56119002
      105.03901       71.29049620        1.43513321
      105.13871       70.15677499        1.37077270
      105.23840       74.64642926        1.41336499
      105.33809       69.87583735        1.37529718
      105.43779       69.56484416        1.59663164
      105.53748       68.14318255        1.41706642
      105.63717       66.42653337        1.28236487
      105.73687       63.90297861        1.19689389
      105.83656       61.65186132        1.14546315
      105.93626       61.80239175        1.45336594
      106.03595       62.65052464        1.32627206
      106.13564       58.17362278        1.23502054
      106.23534       56.76273377        1.23491342
      106.33503       54.93435041        1.22705566
      106.43472       52.89455335        1.42337031
      106.53442       55.02732238        1.26286245
      106.63411       54.64689078        1.14319793
      106.73380       53.99620934        1.08304432
      106.83350       54.19157106        1.06881046
      106.93319       55.29753932        1.39963922
      107.03288       55.23090196        1.23972911
      107.13258       59.16248441        1.24559448
      107.23227       56.80721847        1.23816023
      107.33196       57.83251334        1.24589987
      107.43166       56.66307268        1.48172854
      107.53135       58.18256671        1.29553094
      107.63104       59.50360079        1.19303310
      107.73074       60.56267666        1.15479322
      107.83043       62.26003546        1.15613252
      107.93012       62.56859055        1.53321216
      108.02982       63.91648629        1.35640024
      108.12951       61.88429633        1.26911902
      108.22920       65.39483368        1.28385919
      108.32890       64.51171439        1.26296423
      108.42859       64.83228979        1.60689353
      108.52828       67.60170226        1.39198838
      108.62798       65.05906334        1.23811869
      108.72767       68.21393488        1.21699645
      108.82736       66.17394595        1.22498390
      108.92706       67.01954338        1.56136067
      109.02675       67.62118527        1.37207524
      109.12644       64.56523241        1.30841365
      109.22614       65.34696985        1.31738287
      109.32583       69.99035683        1.48590820
      109.42552       65.35146657        1.51427596
      109.52522       65.71400926        1.36997623
      109.62491       63.78974180        1.28377116
      109.72461       64.39681727        1.23321109
      109.82430       62.86497349        1.13813634
      109.92399       59.84633921        1.44367026
      110.02369       61.77774689        1.28455842
      110.12338       62.16186945        1.28016721
      110.22307       58.75556103        1.23513552
      110.32277       60.36599789        1.27851469
      110.42246       59.07389450        1.53773094
      110.52215       57.72894546        1.28743076
      110.62185       57.03913163        1.20604873
      110.72154       54.17989143        1.09651117
      110.82123       54.90763269        1.14004463
      110.92093       54.34607068        1.32282090
      111.02062       58.48721828        1.26798537
      111.12031       56.25632526        1.25275450
      111.22001       56.04061825        1.22691793
      111.31970       57.54762173        1.34940135
      111.41939       59.44116822        1.41919854
      111.51909       58.07207427        1.27277150
      111.61878       59.51175471        1.21380549
      111.71847       62.87299240        1.16089823
      111.81817       64.34853699        1.27474689
      111.91786       64.87100337        1.34697283
      112.01755       65.66300389        1.32328353
      112.11725       70.64231805        1.38317796
      112.21694       72.98435548        1.39972110
      112.31663       72.35276538        1.53570060
      112.41633       73.94597346        1.52526042
      112.51602       76.12710470        1.42524982
      112.61571       79.60480696        1.39045681
      112.71541       84.13921292        1.34736745
      112.81510       88.24737091        1.54743198
      112.91479       87.53167820        1.56985097
      113.01449       86.85873254        1.53132152
      113.11418       87.57082812        1.53248512
      113.21387       91.17267028        1.55676735
      113.31357       90.30661544        1.72062692
      113.41326       91.04344633        1.64189299
      113.51296       92.49271771        1.55677063
      113.61265       91.21399539        1.49164084
      113.71234       92.64720002        1.43599652
      113.81204       90.91776910        1.62960477
      113.91173       88.46701116        1.55755524
      114.01142       88.52600703        1.54238407
      114.11112       89.01065826        1.54580652
      114.21081       86.91340999        1.53842196
      114.31050       89.85066034        1.77404969
      114.41020       84.41032514        1.58861197
      114.50989       85.24140118        1.49454803
      114.60958       84.72790263        1.44190845
      114.70928       85.85219591        1.39994172
      114.80897       82.64718335        1.55769702
      114.90866       83.62714409        1.47795906
      115.00836       85.81629515        1.49029553
      115.10805       87.06832701        1.50937039
      115.20774       86.01491906        1.52285839
      115.30744       86.02149847        1.74858727
      115.40713       85.89576739        1.58263436
      115.50682       88.44117107        1.51624130
      115.60652       88.31333525        1.46024737
      115.70621       87.48735388        1.39678394
      115.80590       91.72110735        1.66867139
      115.90560       94.72756972        1.53717793
      116.00529       94.82952550        1.55517101
      116.10498       97.23143120        1.59133127
      116.20468       96.95578834        1.62554245
      116.30437      100.44417803        1.97253925
      116.40406      102.41167403        1.73486297
      116.50376      101.39656309        1.63123283
      116.60345      105.73446637        1.59924710
      116.70314      107.18270856        1.56139463
      116.80284      113.18303653        1.90686194
      116.90253      116.77052644        1.74251048
      117.00222      121.75631893        1.76555700
      117.10192      127.54328753        1.85581932
      117.20161      124.68934641        1.85709068
      117.30131      130.87703622        2.27719982
      117.40100      134.23589584        1.93908353
      117.50069      137.67856388        1.86535577
      117.60039      141.31207179        1.80878525
      117.70008      150.18185061        1.80702823
      117.79977      153.73538136        2.24064724
      117.89947      152.32095888        1.93878398
      117.99916      159.62064466        2.00887712
      118.09885      159.48180573        2.04564221
      118.19855      162.17391338        2.16079185
      118.29824      167.88311860        2.41061170
      118.39793      166.90610683        2.18219589
      118.49763      175.70016087        2.11339458
      118.59732      177.19243657        2.04919240
      118.69701      174.51893303        2.11836504
      118.79671      178.72033323        2.31505253
      118.89640      179.51296562        2.16329036
      118.99609      177.14256711        2.14648311
      119.09579      178.13347543        2.17764270
      119.19548      177.08106056        2.37229986
      119.29517      176.35112042        2.45949245
      119.39487      173.01640733        2.23918634
      119.49456      174.64161619        2.12014113
      119.59425      170.18644179        2.03224320
      119.69395      170.01582151        2.14295151
      119.79364      163.31201316        2.12209485
      119.89333      159.67141878        2.03052489
      119.99303      154.44777655        1.94946043
      120.09272      148.15640054        1.95242813
      120.19241      145.43264709        2.17409385
      120.29211      139.58208432        2.10776532
      120.39180      140.30326720        2.01613873
      120.49149      134.36950761        1.83464908
      120.59119      133.04086329        1.77181994
      120.69088      125.40706983        1.85134753
      120.79057      125.23877681        1.81037720
      120.89027      122.02459788        1.75421482
      120.98996      122.28023688        1.74257129
      121.08966      119.54780998        1.73572388
      121.18935      116.96110439        1.96776812
      121.28904      117.54151090        1.92267675
      121.38874      116.21438538        1.80778962
      121.48843      117.47670336        1.71679700
      121.58812      116.59484063        1.63118375
      121.68782      114.42842140        1.79007159
      121.78751      115.43387486        1.71330373
      121.88720      115.69430536        1.69332075
      121.98690      115.06557395        1.70132875
      122.08659      111.84301983        1.71073241
      122.18628      112.22301069        1.98794563
      122.28598      109.34988561        1.84517124
      122.38567      108.74323499        1.76223738
      122.48536      110.55728623        1.68091272
      122.58506      108.38396926        1.57615589
      122.68475      107.08763198        1.77527488
      122.78444      111.01703766        1.70224411
      122.88414      108.10552420        1.66534524
      122.98383      104.60011512        1.67148185
      123.08352      106.23516853        1.67018704
      123.18322      104.02612935        1.92745800
      123.28291      105.41901310        1.76354029
      123.38260      101.51741867        1.67042981
      123.48230      102.13126750        1.61487637
      123.58199       97.41078194        1.47384287
      123.68168       97.08533554        1.67897654
      123.78138       97.14464772        1.51524699
      123.88107       94.84192364        1.46244578
      123.98076       91.49903820        1.46284144
      124.08046       92.21296563        1.45310101
      124.18015       89.23672199        1.61778003
      124.27984       88.91921143        1.44682811
      124.37954       86.67025636        1.34779074
      124.47923       84.11094310        1.29609556
      124.57893       79.01906516        1.33816817
