        5.04651       57.42772156        2.58410028
        5.14621       52.50214461        2.38082289
        5.24590       50.32890543        2.29742346
        5.34559       52.37067205        2.14958659
        5.44529       54.39507946        2.38349513
        5.54498       55.50857959        2.02544016
        5.64467       49.34656508        1.89260920
        5.74437       50.51421732        1.72860063
        5.84406       49.12601675        1.72505029
        5.94375       49.13718765        1.72293464
        6.04345       49.22306419        1.67562128
        6.14314       50.22370504        1.54978990
        6.24283       50.08033601        1.59865448
        6.34253       47.77357810        1.48913502
        6.44222       51.53545099        1.62878700
        6.54191       47.50191076        1.48120044
        6.64161       46.79061215        1.39261778
        6.74130       48.92809716        1.42993111
        6.84099       49.90941339        1.43379283
        6.94069       45.41115190        1.38802864
        7.04038       48.68382007        1.32676887
        7.14007       48.04250365        1.31523872
        7.23977       46.45785787        1.27068195
        7.33946       45.79352863        1.28084520
        7.43915       45.38627595        1.25848002
        7.53885       48.86887407        1.28193409
        7.63854       47.99179871        1.21416140
        7.73823       42.67986294        1.18869605
        7.83793       46.63533406        1.20260605
        7.93762       45.34860513        1.23700760
        8.03732       47.33891577        1.13354390
        8.13701       47.51793464        1.13056590
        8.23670       48.18727651        1.15459278
        8.33640       46.81539415        1.13829609
        8.43609       48.11659923        1.20652163
        8.53578       46.25578735        1.10178751
        8.63548       48.23031575        1.11220416
        8.73517       47.93999073        1.08770640
        8.83486       46.09925095        1.06914793
        8.93456       46.12189497        1.06391879
        9.03425       47.18330873        1.04461923
        9.13394       45.93200022        1.03256934
        9.23364       47.38872623        1.06418389
        9.33333       44.75804957        1.05518339
        9.43302       44.38965946        1.05120932
        9.53272       46.41410135        1.03867045
        9.63241       46.17754002        1.06529465
        9.73210       46.91439053        1.07163595
        9.83180       45.58571149        1.10065956
        9.93149       44.56634455        1.08045497
       10.03118       47.45515506        1.07287817
       10.13088       47.20448843        1.04439127
       10.23057       46.99844911        1.09129297
       10.33026       45.56253664        1.11061386
       10.42996       48.23704661        1.12719446
       10.52965       48.02718221        1.08924953
       10.62934       46.82352699        1.07805182
       10.72904       47.56626489        1.10266697
       10.82873       47.48136197        1.09612759
       10.92842       47.00417246        1.10886757
       11.02812       46.72639231        1.05329377
       11.12781       47.68587728        1.10225786
       11.22750       48.82581369        1.12651217
       11.32720       49.99953488        1.17068273
       11.42689       49.44842210        1.12379907
       11.52658       53.44047624        1.15452083
       11.62628       54.20863002        1.17543729
       11.72597       55.23070053        1.21171050
       11.82567       60.75535617        1.30646377
       11.92536       63.22318939        1.24730576
       12.02505       69.36041761        1.31280955
       12.12475       73.59317286        1.35124486
       12.22444       84.36135307        1.53463811
       12.32413       95.57970979        1.65896954
       12.42383      108.15709777        1.67563164
       12.52352      125.04138712        1.79133712
       12.62321      145.78165536        1.99007889
       12.72291      169.82223569        2.09117831
       12.82260      196.85604408        2.44875852
       12.92229      217.29103325        2.33726570
       13.02199      244.63128240        2.46130803
       13.12168      268.47060879        2.62373465
       13.22137      297.37757989        2.85175659
       13.32107      329.04505755        3.09752055
       13.42076      352.91576932        3.08831538
       13.52045      362.67257515        3.16771298
       13.62015      369.42190416        3.09864937
       13.71984      349.72212279        3.14096100
       13.81953      313.93163519        3.02475172
       13.91923      279.30120956        2.67950950
       14.01892      219.44284762        2.31103538
       14.11861      166.42637225        2.09881946
       14.21831      131.56718602        1.86750229
       14.31800      103.97446629        1.74725940
       14.41769       85.34596257        1.52428709
       14.51739       69.72501808        1.34382176
       14.61708       61.14533620        1.26143679
       14.71677       54.57574782        1.21102503
       14.81647       50.72596976        1.22296058
       14.91616       49.66695406        1.11283114
       15.01585       49.66984838        1.13293312
       15.11555       46.91859251        1.11376450
       15.21524       46.95341944        1.14833274
       15.31493       48.36684586        1.19365372
       15.41463       47.66726294        1.14731077
       15.51432       46.09371582        1.09319681
       15.61402       48.21669648        1.14648694
       15.71371       46.82436222        1.12199674
       15.81340       45.45228673        1.14992136
       15.91310       48.12333753        1.14979853
       16.01279       46.82530178        1.08592193
       16.11248       46.15514456        1.10704874
       16.21218       48.15443219        1.16218946
       16.31187       46.71725016        1.14745604
       16.41156       47.45025598        1.13491900
       16.51126       48.39122914        1.16553457
       16.61095       48.15689399        1.12110798
       16.71064       51.30389300        1.19387707
       16.81034       50.71549233        1.19057856
       16.91003       50.89981680        1.15834976
       17.00972       53.79732372        1.14333877
       17.10942       57.86062029        1.25342005
       17.20911       56.89067717        1.25378755
       17.30880       63.47496598        1.33613988
       17.40850       67.04993488        1.37307017
       17.50819       71.63237103        1.37826121
       17.60788       74.21417951        1.44655559
       17.70758       72.87431294        1.43927513
       17.80727       75.68495063        1.48502394
       17.90696       72.87470586        1.36231438
       18.00666       68.61480262        1.34491649
       18.10635       62.90243837        1.25229397
       18.20604       60.17942376        1.34361953
       18.30574       56.32975526        1.23876469
       18.40543       55.07407640        1.19452579
       18.50512       53.48347951        1.21423502
       18.60482       52.66730962        1.18600309
       18.70451       51.49324710        1.23922161
       18.80420       50.11193742        1.14838491
       18.90390       49.41495069        1.12816944
       19.00359       48.76741098        1.09143187
       19.10328       48.22967618        1.14831660
       19.20298       46.37071826        1.16092890
       19.30267       47.60881676        1.12969820
       19.40237       49.03790707        1.13360909
       19.50206       46.60552856        1.13282501
       19.60175       44.19318183        1.09065530
       19.70145       45.46041228        1.15998630
       19.80114       45.96878381        1.10633161
       19.90083       45.42374265        1.06256747
       20.00053       45.93251854        1.08748022
       20.10022       48.31535764        1.12370921
       20.19991       47.16906551        1.18698531
       20.29961       47.61038455        1.12994150
       20.39930       48.79423442        1.17850880
       20.49899       49.13870773        1.16212926
       20.59869       50.78748488        1.20313663
       20.69838       51.06832567        1.25096033
       20.79807       51.82938158        1.20205581
       20.89777       53.66290525        1.19553915
       20.99746       54.80895066        1.22030059
       21.09715       56.64002572        1.30674447
       21.19685       56.52284427        1.29858279
       21.29654       57.36781338        1.27623149
       21.39623       57.17023723        1.27408982
       21.49593       56.23574495        1.24553200
       21.59562       53.20463086        1.24054068
       21.69531       51.12473639        1.26476131
       21.79501       49.44537794        1.13777583
       21.89470       46.32672253        1.07641059
       21.99439       46.49757255        1.12412184
       22.09409       44.88105284        1.10708214
       22.19378       46.88237521        1.20172338
       22.29347       43.74863910        1.08104631
       22.39317       45.54452015        1.13165757
       22.49286       45.67361384        1.13235960
       22.59255       47.84910583        1.17273158
       22.69225       46.89828104        1.22344469
       22.79194       52.94681973        1.16772278
       22.89163       55.23847508        1.16950009
       22.99133       58.92669880        1.24157039
       23.09102       65.48282196        1.35957616
       23.19072       64.39508694        1.35136529
       23.29041       69.20828146        1.38375019
       23.39010       73.51062374        1.44127057
       23.48980       68.14541907        1.39245349
       23.58949       66.02643099        1.38890998
       23.68918       64.02826840        1.43815668
       23.78888       58.18607438        1.22156186
       23.88857       55.49398648        1.20846469
       23.98826       48.70648756        1.15716357
       24.08796       47.53181535        1.12080561
       24.18765       46.17730006        1.18365942
       24.28734       43.02490778        1.08769177
       24.38704       44.19647311        1.12087243
       24.48673       44.50985236        1.12082901
       24.58642       42.02350069        1.12501082
       24.68612       43.56640874        1.14402599
       24.78581       42.12974070        1.03701116
       24.88550       43.36329093        1.05170019
       24.98520       43.69573481        1.09478811
       25.08489       43.97277969        1.12019318
       25.18458       45.14941914        1.15897335
       25.28428       46.04851568        1.12814589
       25.38397       47.03905159        1.13471587
       25.48366       50.26124131        1.18008719
       25.58336       52.57231037        1.25806359
       25.68305       60.93396691        1.32874991
       25.78274       67.78912558        1.32298649
       25.88244       84.06301315        1.51108918
       25.98213      102.72169474        1.68469666
       26.08182      129.24258891        1.94037830
       26.18152      149.32400876        2.13673352
       26.28121      174.20766197        2.18402231
       26.38090      192.11764834        2.31367120
       26.48060      197.03067890        2.40802503
       26.58029      188.95810564        2.45987611
       26.67998      175.25361862        2.23723454
       26.77968      148.88280447        2.03670563
       26.87937      118.61983543        1.79093808
       26.97907       94.00304930        1.58023454
       27.07876       81.85370436        1.58739225
       27.17845       77.11383828        1.47224229
       27.27815       80.06625744        1.46515090
       27.37784       81.14193172        1.53244859
       27.47753       82.80189542        1.52524690
       27.57723       87.31039916        1.64095660
       27.67692       83.71180705        1.56817502
       27.77661       78.96958953        1.45357648
       27.87631       70.97652136        1.35488289
       27.97600       60.38844999        1.27754178
       28.07569       57.91921270        1.32414925
       28.17539       50.80922273        1.18703196
       28.27508       50.50842333        1.18403856
       28.37477       46.40887624        1.16181830
       28.47447       50.15182374        1.19848654
       28.57416       48.77188418        1.27769603
       28.67385       50.62284016        1.15818503
       28.77355       53.41271748        1.16831182
       28.87324       54.31390744        1.20953584
       28.97293       56.73180144        1.23915156
       29.07263       57.22422822        1.35660949
       29.17232       58.12836407        1.24780677
       29.27201       53.99888071        1.22471458
       29.37171       54.58668022        1.26674815
       29.47140       49.77519604        1.19547725
       29.57109       48.69096524        1.25376091
       29.67079       50.18472446        1.15885177
       29.77048       45.62529490        1.10734199
       29.87017       46.84059517        1.10001818
       29.96987       47.60009191        1.16274455
       30.06956       46.62094019        1.18714021
       30.16925       45.99079288        1.11016098
       30.26895       45.41200921        1.10734485
       30.36864       46.51907818        1.13912065
       30.46833       49.98913618        1.19295205
       30.56803       51.91955881        1.28433711
       30.66772       54.50593905        1.22467900
       30.76742       57.16960005        1.22924009
       30.86711       58.27356817        1.26581771
       30.96680       63.29297453        1.32705840
       31.06650       63.12629664        1.38964967
       31.16619       60.95078991        1.28379877
       31.26588       58.45881081        1.24962636
       31.36558       56.45571646        1.24403034
       31.46527       59.61656100        1.33032098
       31.56496       59.58475796        1.35131852
       31.66466       62.30592284        1.29238153
       31.76435       69.88886748        1.36767182
       31.86404       76.54830984        1.41278324
       31.96374       86.64582993        1.53840872
       32.06343       86.04333796        1.58640615
       32.16312       86.18742419        1.49214800
       32.26282       84.18090557        1.51066449
       32.36251       76.35687912        1.49598863
       32.46220       75.37545366        1.51303123
       32.56190       69.49984212        1.47838413
       32.66159       68.31628997        1.39190716
       32.76128       66.70851871        1.34450741
       32.86098       66.96141955        1.36729934
       32.96067       62.54514696        1.33779143
       33.06036       61.61307737        1.35197070
       33.16006       59.54889223        1.25162859
       33.25975       56.96608330        1.26383979
       33.35944       57.18988564        1.27319277
       33.45914       55.98537351        1.30757330
       33.55883       60.92886056        1.36751032
       33.65852       60.27369218        1.26827010
       33.75822       62.75744581        1.29195702
       33.85791       71.80976785        1.38796686
       33.95760       80.65277651        1.51470482
       34.05730       93.52223342        1.61574427
       34.15699      102.81336714        1.66740170
       34.25668      123.72108318        1.82355139
       34.35638      147.03459889        2.04002158
       34.45607      186.02615570        2.41814437
       34.55577      230.19867213        2.56457855
       34.65546      290.32854253        2.76351587
       34.75515      359.67469828        3.13608627
       34.85485      420.42236975        3.36665210
       34.95454      439.14703552        3.54903151
       35.05423      431.19982447        3.63732247
       35.15393      387.14762854        3.23546336
       35.25362      325.94925112        3.01422211
       35.35331      254.19390428        2.72938393
       35.45301      195.57406677        2.49678495
       35.55270      148.83461611        2.11954802
       35.65239      111.12993958        1.76773040
       35.75209       90.64805089        1.58424281
       35.85178       79.40116672        1.48032106
       35.95147       73.19884386        1.45456213
       36.05117       68.48568656        1.37782152
       36.15086       66.82039454        1.30857533
       36.25055       63.85763431        1.33638823
       36.35025       60.67402049        1.32802912
       36.44994       58.68851278        1.33214562
       36.54963       59.67112101        1.28951516
       36.64933       58.26738136        1.25518324
       36.74902       54.57287377        1.22727354
       36.84871       56.56986667        1.24060000
       36.94841       52.20158241        1.28859590
       37.04810       50.42267238        1.11661934
       37.14779       50.66179189        1.14222490
       37.24749       48.29108755        1.14610523
       37.34718       47.71478346        1.16828364
       37.44687       49.55409801        1.27901034
       37.54657       47.65883243        1.14502918
       37.64626       46.20710048        1.12307451
       37.74595       44.57566243        1.08576067
       37.84565       47.94610150        1.19161565
       37.94534       47.12244715        1.20344715
       38.04503       46.90384040        1.08517238
       38.14473       48.76690261        1.11743150
       38.24442       47.80107676        1.12649180
       38.34412       46.70377483        1.16409022
       38.44381       45.95066452        1.24849839
       38.54350       50.38411986        1.16556120
       38.64320       48.43683373        1.13927341
       38.74289       48.86512339        1.15928276
       38.84258       50.61264071        1.18275553
       38.94228       55.25611959        1.29642476
       39.04197       60.13358946        1.21970125
       39.14166       63.40899607        1.30302640
       39.24136       66.91785629        1.33512640
       39.34105       70.68238183        1.42018642
       39.44074       69.72735275        1.53853033
       39.54044       74.66474103        1.42377063
       39.64013       71.27966442        1.38671573
       39.73982       67.04850473        1.35019073
       39.83952       61.91077202        1.28844487
       39.93921       59.13075181        1.33501977
       40.03890       57.30391938        1.20293213
       40.13860       58.39605612        1.21282143
       40.23829       55.81093542        1.22750792
       40.33798       54.12623616        1.24644821
       40.43768       56.56147359        1.33325333
       40.53737       57.18117761        1.24421826
       40.63706       56.47152463        1.26240288
       40.73676       57.40113988        1.27077114
       40.83645       59.23049756        1.30172111
       40.93614       63.24316278        1.36781728
       41.03584       66.61307949        1.32119725
       41.13553       80.03449839        1.45039144
       41.23522       94.83621471        1.61770972
       41.33492      115.21238073        1.86727735
       41.43461      135.11254095        2.08754841
       41.53430      162.51346544        2.14511037
       41.63400      191.97309245        2.38362023
       41.73369      212.39975968        2.45334978
       41.83338      219.84972788        2.56296502
       41.93308      217.81105576        2.52807190
       42.03277      227.33322079        2.36119827
       42.13247      249.59968703        2.60127133
       42.23216      297.89135376        2.84883239
       42.33185      354.16550770        3.33578813
       42.43155      415.00288751        3.55899214
       42.53124      476.84566963        3.69506100
       42.63093      512.52878670        3.83760273
       42.73063      527.72009643        3.91147644
       42.83032      511.45320424        3.91819977
       42.93001      489.42621732        3.68995787
       43.02971      430.51987365        3.26909703
       43.12940      349.57229889        3.00400016
       43.22909      279.42758174        2.82178111
       43.32879      209.90074236        2.57407880
       43.42848      162.12556934        2.21122265
       43.52817      119.18891317        1.81260277
       43.62787       90.51927566        1.57347120
       43.72756       76.22111681        1.47761427
       43.82725       68.37060274        1.46104451
       43.92695       62.21457582        1.26364084
       44.02664       55.90675644        1.19191295
       44.12633       55.71128734        1.23418443
       44.22603       54.65011201        1.27227943
       44.32572       50.97018945        1.29483299
       44.42541       55.78568733        1.29354448
       44.52511       54.66355698        1.24597815
       44.62480       53.59521584        1.25113548
       44.72449       57.17466423        1.25243718
       44.82419       61.75111897        1.46074276
       44.92388       67.54514348        1.27435275
       45.02357       75.03148706        1.35434905
       45.12327       91.33710066        1.53974548
       45.22296      109.33122674        1.72957982
       45.32265      132.92021444        2.11053821
       45.42235      156.46225528        2.08572551
       45.52204      179.58486286        2.21264575
       45.62174      203.45646506        2.39859316
       45.72143      221.22106306        2.50148014
       45.82112      224.17891707        2.75627785
       45.92082      218.35635960        2.30878565
       46.02051      218.42264478        2.35854168
       46.12020      218.17524415        2.36522388
       46.21990      209.90522610        2.43781570
       46.31959      198.29813769        2.55850897
       46.41928      181.53014168        2.26057164
       46.51898      166.91344080        2.17962146
       46.61867      135.39541863        1.95186962
       46.71836      109.50964053        1.79945319
       46.81806       95.22078106        1.73938592
       46.91775       72.88480937        1.32560171
       47.01744       70.33928088        1.33325139
       47.11714       66.10094010        1.32177912
       47.21683       70.68551407        1.40725886
       47.31652       79.31464329        1.62661559
       47.41622       89.62454054        1.62982651
       47.51591      103.46966996        1.75485654
       47.61560      120.14099038        1.87565886
       47.71530      135.09205089        2.01080992
       47.81499      144.73792285        2.13381871
       47.91468      152.38029692        1.91529512
       48.01438      167.67055624        2.01066367
       48.11407      168.02184842        2.08791370
       48.21376      166.92560757        2.17273460
       48.31346      163.09871686        2.22411327
       48.41315      156.28542317        2.02928426
       48.51284      141.19911528        1.99256642
       48.61254      128.66445606        1.89412652
       48.71223      108.23711681        1.76807454
       48.81192       96.83456488        1.66812246
       48.91162       80.43696041        1.36237390
       49.01131       65.94333357        1.27629304
       49.11100       60.24584582        1.26368495
       49.21070       55.19892263        1.26973605
       49.31039       51.33364263        1.26004554
       49.41009       52.45488720        1.20333101
       49.50978       50.64230938        1.20674701
       49.60947       48.93312542        1.19481967
       49.70917       47.79422583        1.22456943
       49.80886       49.58576266        1.21401764
       49.90855       48.35663020        1.09205238
       50.00825       49.00225781        1.12256338
       50.10794       48.72901063        1.14489457
       50.20763       49.07718973        1.20043036
       50.30733       52.70263765        1.30322031
       50.40702       53.21987589        1.22812098
       50.50671       54.32785533        1.24453171
       50.60641       54.62014677        1.24965557
       50.70610       57.38619981        1.31813452
       50.80579       57.69724722        1.30427472
       50.90549       56.48620568        1.16345804
       51.00518       55.89073459        1.16754539
       51.10487       53.48352550        1.18050563
       51.20457       54.68454440        1.27084030
       51.30426       57.09347903        1.29188473
       51.40395       56.57374985        1.23282082
       51.50365       59.14766450        1.27506601
       51.60334       62.09627625        1.33240141
       51.70303       60.09568664        1.39185807
       51.80273       62.07290103        1.29763286
       51.90242       61.76459809        1.20936335
       52.00211       59.71019800        1.19461718
       52.10181       60.24047484        1.23791060
       52.20150       62.78199495        1.39186281
       52.30119       62.62679339        1.33911445
       52.40089       61.59763394        1.30722283
       52.50058       62.09268248        1.33728327
       52.60027       59.87719268        1.33104184
       52.69997       59.98076279        1.45996891
       52.79966       62.99794997        1.25806789
       52.89935       65.81740593        1.24087449
       52.99905       76.79692344        1.36274927
       53.09874       88.57915716        1.51120960
       53.19844       96.32753861        1.80487206
       53.29813      111.69180303        1.72776346
       53.39782      122.77929187        1.87431514
       53.49752      129.80763738        1.93608811
       53.59721      138.54767531        1.99898917
       53.69690      142.13464007        2.22167562
       53.79660      148.41753526        1.90206588
       53.89629      145.84321363        1.86499686
       53.99598      141.84753315        1.88408093
       54.09568      135.32563785        1.92152032
       54.19537      125.80946786        2.02021358
       54.29506      116.77539300        1.78775451
       54.39476      108.58675665        1.73701379
       54.49445       99.05302024        1.65978765
       54.59414       94.55443698        1.64618985
       54.69384       88.55292966        1.69920399
       54.79353       85.68077042        1.43318609
       54.89322       85.53059761        1.42679442
       54.99292       80.27171772        1.42248138
       55.09261       74.80811838        1.42783403
       55.19230       69.58997478        1.47866126
       55.29200       66.71457051        1.34742386
       55.39169       63.48878716        1.35615855
       55.49138       57.90821902        1.29015145
       55.59108       56.19088423        1.31156904
       55.69077       55.00908825        1.33174166
       55.79046       55.01536234        1.16438313
       55.89016       54.30253422        1.15402237
       55.98985       56.57418442        1.18555875
       56.08954       57.56930507        1.23539025
       56.18924       66.71994455        1.43573328
       56.28893       73.51600621        1.37958398
       56.38862       81.18083006        1.49984454
       56.48832       94.95191563        1.65058022
       56.58801      103.53509377        1.77372478
       56.68770      110.87176826        1.89473809
       56.78740      113.76364480        1.64268554
       56.88709      116.45109120        1.67872614
       56.98679      106.63294495        1.60737894
       57.08648       94.66917195        1.60498362
       57.18617       84.64508184        1.57103394
       57.28587       75.42905679        1.38534510
       57.38556       63.12463955        1.34861846
       57.48525       59.24895814        1.33156375
       57.58495       55.87893481        1.32266827
       57.68464       56.30523036        1.33932905
       57.78433       49.98397474        1.10368158
       57.88403       52.74922111        1.14712995
       57.98372       53.90047271        1.17809305
       58.08341       54.02121384        1.27522335
       58.18311       52.16571559        1.28178765
       58.28280       51.36206697        1.19793196
       58.38249       52.10091225        1.26072992
       58.48219       51.46972762        1.28009965
       58.58188       51.44669624        1.29380872
       58.68157       51.85424979        1.27285261
       58.78127       51.65346372        1.11120204
       58.88096       53.88965867        1.11834183
       58.98065       54.98462504        1.17270476
       59.08035       57.75518754        1.28259827
       59.18004       57.57840491        1.29907087
       59.27973       61.84056911        1.27039213
       59.37943       62.21472302        1.31623561
       59.47912       66.57562271        1.41758749
       59.57881       73.56302121        1.56137396
       59.67851       76.56592069        1.48519558
       59.77820       83.93841737        1.42982137
       59.87789       92.43940285        1.49547192
       59.97759      103.81314615        1.65835751
       60.07728      105.65116943        1.81170406
       60.17697      105.45995327        1.72425659
       60.27667      108.47803373        1.70036828
       60.37636      110.28739017        1.74785822
       60.47605      105.25007979        1.78101133
       60.57575      101.91325397        1.92054767
       60.67544       92.75801532        1.57372060
       60.77514       85.22341177        1.43377487
       60.87483       79.14688309        1.35471663
       60.97452       72.29498652        1.36375139
       61.07422       66.14003053        1.46506529
       61.17391       65.57519954        1.26364296
       61.27360       63.67704830        1.28935188
       61.37330       66.68270992        1.36850931
       61.47299       68.23479037        1.44526234
       61.57268       73.07563745        1.70110983
       61.67238       70.43260583        1.36101197
       61.77207       71.23037895        1.33304879
       61.87176       70.99419833        1.31599830
       61.97146       72.53713913        1.38112974
       62.07115       70.10683524        1.53766360
       62.17084       67.16151279        1.31844472
       62.27054       66.29219822        1.36575562
       62.37023       68.31921713        1.44181559
       62.46992       68.27011217        1.49069362
       62.56962       71.35009113        1.71180759
       62.66931       72.37697068        1.38895595
       62.76900       80.42067200        1.42741635
       62.86870       87.56222611        1.45725620
       62.96839       94.14335866        1.55950587
       63.06808      100.65532162        1.79482725
       63.16778      104.32482934        1.62212172
       63.26747      108.47815166        1.71184273
       63.36716      109.84667812        1.78765431
       63.46686      114.78985052        1.88246567
       63.56655      119.66859813        2.04217723
       63.66624      127.64347728        1.79302134
       63.76594      142.60012746        1.84166092
       63.86563      156.40641178        1.92349349
       63.96532      168.28221133        2.08844884
       64.06502      173.11608499        2.26957907
       64.16471      175.65939860        2.11490455
       64.26440      165.47851818        2.13635713
       64.36410      157.78786186        2.12802749
       64.46379      138.02695260        2.10380240
       64.56349      128.11898917        2.06256356
       64.66318      106.58730071        1.64564881
       64.76287       91.63911413        1.50652948
       64.86257       74.03452974        1.35136743
       64.96226       64.06438828        1.31637653
       65.06195       61.63472122        1.39608787
       65.16165       55.55981344        1.19547157
       65.26134       56.52005986        1.23403292
       65.36103       52.63363147        1.24245759
       65.46073       53.71654426        1.29646314
       65.56042       56.02192260        1.38294016
       65.66011       55.14394909        1.19634199
       65.75981       55.95944069        1.19313274
       65.85950       58.65868590        1.21388391
       65.95919       61.01550289        1.29605321
       66.05889       65.24137885        1.38640383
       66.15858       68.76067454        1.35357381
       66.25827       73.40412196        1.44647402
       66.35797       82.06827060        1.59359779
       66.45766       95.78301277        1.82988166
       66.55735      106.78501897        1.93202229
       66.65705      121.15681379        1.82602287
       66.75674      137.19851291        1.89419457
       66.85643      153.01017078        1.97834342
       66.95613      163.70451409        2.12816252
       67.05582      167.95277268        2.17195525
       67.15551      171.15713167        2.08672160
       67.25521      165.08986275        2.15082462
       67.35490      155.56558167        2.19761358
       67.45459      142.66112046        2.21896609
       67.55429      123.20032026        1.97483215
       67.65398      108.38689978        1.65990341
       67.75367       90.22223785        1.50139111
       67.85337       81.02309985        1.43999925
       67.95306       73.75219788        1.46877757
       68.05275       75.38357780        1.40615084
       68.15245       77.96369380        1.41776422
       68.25214       86.91522690        1.58920400
       68.35184       93.55572270        1.71857353
       68.45153       99.79088262        1.95418234
       68.55122      108.00704790        1.75172946
       68.65092      116.13187056        1.69334621
       68.75061      122.90508827        1.76026939
       68.85030      126.80932977        1.82261802
       68.95000      125.31220778        2.05408705
       69.04969      123.14492126        1.71959938
       69.14938      117.25346220        1.72526335
       69.24908      105.26167331        1.74522394
       69.34877       95.33872023        1.71748139
       69.44846       87.04709520        1.90320269
       69.54816       80.53621803        1.42713054
       69.64785       70.57612413        1.31682557
       69.74754       60.03592056        1.22635210
       69.84724       57.12223778        1.22732968
       69.94693       54.22018954        1.34935505
       70.04662       50.28694704        1.06848673
       70.14632       47.48804145        1.07961205
       70.24601       46.72296158        1.14659529
       70.34570       45.43936786        1.19648141
       70.44540       47.85032492        1.44677694
       70.54509       48.25630710        1.13725166
       70.64478       48.90112754        1.14322248
       70.74448       49.16890503        1.16452911
       70.84417       48.80634665        1.20393390
       70.94386       48.85752869        1.32227700
       71.04356       51.29669674        1.12125736
       71.14325       51.65401145        1.16925059
       71.24294       55.17368768        1.27162105
       71.34264       54.85346717        1.34442184
       71.44233       51.93027569        1.45955779
       71.54202       53.98613792        1.21164307
       71.64172       53.14131282        1.16932886
       71.74141       51.52967545        1.13050193
       71.84110       52.70892120        1.18361129
       71.94080       53.74728654        1.30245683
       72.04049       51.68344736        1.08094976
       72.14019       51.47057468        1.12391611
       72.23988       49.67112538        1.15515353
       72.33957       49.65726395        1.29013306
       72.43927       53.18305626        1.46991439
       72.53896       51.88115759        1.16398578
       72.63865       53.25407781        1.15275467
       72.73835       53.25807701        1.12744434
       72.83804       56.41171720        1.22541742
       72.93773       58.00559722        1.31999723
       73.03743       60.10696381        1.16642643
       73.13712       61.53644681        1.24468832
       73.23681       63.47158915        1.32814975
       73.33651       62.82651895        1.45395447
       73.43620       62.48871419        1.57058083
       73.53589       60.13168180        1.24274342
       73.63559       62.45386839        1.24672632
       73.73528       63.03977499        1.24689531
       73.83497       63.96888994        1.33166385
       73.93467       63.22378491        1.39401875
       74.03436       64.59403504        1.24705986
       74.13405       65.08513128        1.30503460
       74.23375       61.71734088        1.32358671
       74.33344       67.15492113        1.52021150
       74.43313       63.83534059        1.53780265
       74.53283       66.55852631        1.33428292
       74.63252       68.79745967        1.34681231
       74.73221       73.59523459        1.38639837
       74.83191       72.51695936        1.45980073
       74.93160       78.62120878        1.53743274
       75.03129       78.61345018        1.36671788
       75.13099       82.34017151        1.44894569
       75.23068       90.10580379        1.58136761
       75.33037       93.87458512        1.77436103
       75.43007       98.66822452        1.84554157
       75.52976      103.41364257        1.64124036
       75.62945      114.75298680        1.72788985
       75.72915      123.44587916        1.78542449
       75.82884      124.54477719        1.93078217
       75.92854      132.32289484        1.86866962
       76.02823      141.03630312        1.80979888
       76.12792      148.67821021        1.94263025
       76.22762      149.72939878        2.05686015
       76.32731      153.38578252        2.35147209
       76.42700      149.64964665        2.19188793
       76.52670      150.71935443        2.02943841
       76.62639      145.16171039        1.96618510
       76.72608      134.07553500        1.85763806
       76.82578      136.43442341        2.15951131
       76.92547      127.39173821        1.67092141
       77.02516      128.23152030        1.73759253
       77.12486      125.14545116        1.80300317
       77.22455      128.26716440        1.94376218
       77.32424      130.70382338        2.41068557
       77.42394      135.64111110        1.96117709
       77.52363      133.64184342        1.88095446
       77.62332      133.33633636        1.87013233
       77.72302      138.68782031        1.91190178
       77.82271      140.26528645        2.25497403
       77.92240      142.32951205        1.73949225
       78.02210      138.56871433        1.85177216
       78.12179      137.88516338        1.97288304
       78.22148      137.02007550        2.07969156
       78.32118      131.24499385        2.36137238
       78.42087      125.87791076        1.81978126
       78.52056      124.69320709        1.87039562
       78.62026      117.14469149        1.79829598
       78.71995      113.21700528        1.77367736
       78.81964      109.32496930        1.94665501
       78.91934       98.50455203        1.43133088
       79.01903       89.32569755        1.49393811
       79.11872       78.87764437        1.46052493
       79.21842       74.97895134        1.51888061
       79.31811       70.87894330        1.66323947
       79.41780       68.40299188        1.32534192
       79.51750       68.71564096        1.34978164
       79.61719       65.35452028        1.32007408
       79.71689       65.03489826        1.36717831
       79.81658       66.30137176        1.46337998
       79.91627       64.41498522        1.22258074
       80.01597       61.46393100        1.22738482
       80.11566       62.00460648        1.28871818
       80.21535       64.07416592        1.40048202
       80.31505       68.71118283        1.72430734
       80.41474       64.62507002        1.28479884
       80.51443       67.80019798        1.31036366
       80.61413       73.21274358        1.40708014
       80.71382       79.13979180        1.51364088
       80.81351       81.94395235        1.73084778
       80.91321       92.33287321        1.35528480
       81.01290      106.90769253        1.57491051
       81.11259      127.82588206        1.85975178
       81.21229      147.28871218        2.16027666
       81.31198      161.44739082        2.52364644
       81.41167      177.16067403        2.07037861
       81.51137      203.83487965        2.28594842
       81.61106      211.92216378        2.43379681
       81.71075      228.92945684        2.61895553
       81.81045      234.56929903        2.80853154
       81.91014      257.52629764        2.26392168
       82.00983      272.71395989        2.49079372
       82.10953      276.59709277        2.80605685
       82.20922      282.38407879        3.15346149
       82.30891      286.70725023        3.33209144
       82.40861      287.77186526        2.71470165
       82.50830      281.90152671        2.67937875
       82.60799      278.38073679        2.86783313
       82.70769      275.57843782        3.10493302
       82.80738      276.01643536        2.96907276
       82.90707      273.90097966        2.40169127
       83.00677      267.45216289        2.52850046
       83.10646      257.38295273        2.91809698
       83.20615      249.75715033        3.19937574
       83.30585      241.64522144        2.98106346
       83.40554      230.63136263        2.42107564
       83.50524      216.18699458        2.28682483
       83.60493      193.39736950        2.38167815
       83.70462      174.42011411        2.54943601
       83.80432      168.98758161        2.19314384
       83.90401      143.80319484        1.69614266
       84.00370      122.08577152        1.62923761
       84.10340      104.23271781        1.79813471
       84.20309       96.30332916        2.09794849
       84.30278       88.25138574        1.63298810
       84.40248       77.40250708        1.34929485
       84.50217       70.97462401        1.26730758
       84.60186       68.31492434        1.40578278
       84.70156       68.48684773        1.84191683
       84.80125       67.37540237        1.27187746
       84.90094       68.56449121        1.15263685
       85.00064       62.54515408        1.13399399
       85.10033       64.15723162        1.35931637
       85.20002       66.95071440        2.38181360
       85.29972       66.26210525        1.24991318
       85.39941       66.73936087        1.27894679
       85.49910       68.52547217        1.26035461
       85.59880       65.32003152        1.38352348
       85.69849       67.87485343        2.53224163
       85.79818       63.58048681        1.15530295
       85.89788       63.90800533        1.13061298
       85.99757       63.45493114        1.15756393
       86.09726       63.80884240        1.33277213
       86.19696       62.19432632        2.52705578
       86.29665       60.03610517        1.17485228
       86.39634       58.74356138        1.18225156
       86.49604       58.50346988        1.16198043
       86.59573       55.64357860        1.20731258
       86.69542       56.40905161        2.54161784
       86.79512       54.24850515        1.03456796
       86.89481       55.75923630        1.03414916
       86.99451       52.51309296        1.04015066
       87.09420       53.14726760        1.16706047
       87.19389       54.32554071        2.79510180
       87.29359       51.36255623        1.10133986
       87.39328       50.04712626        1.10178230
       87.49297       48.50900963        1.05295819
       87.59267       48.35678211        1.07197206
       87.69236       46.97391639        3.16130306
       87.79205       50.52293765        1.02143661
       87.89175       49.06673119        0.99845341
       87.99144       49.99761773        1.05025958
       88.09113       49.57518741        1.11155744
       88.19083       43.31035884        5.49664217
       88.29052       49.11375149        1.11332589
       88.39021       48.22813415        1.11056156
       88.48991       47.69907454        1.05994302
       88.58960       51.11862962        1.06274809
       88.68929       48.94525369        8.05522517
       88.78899       49.45330221        1.00889462
       88.88868       48.66437256        0.97892942
       88.98837       50.27494247        1.03494726
       89.08807       48.36679837        1.03968829
       89.18776       40.64313703        7.75256675
       89.28745       49.78174016        1.07172763
       89.38715       51.49788646        1.10130706
       89.48684       56.25636599        1.12662368
       89.58653       53.18836304        1.07309897
       89.68623       62.33454315        9.42074408
       89.78592       57.35511298        1.08293638
       89.88561       60.75601648        1.09282817
       89.98531       64.93186379        1.15861306
       90.08500       69.16175666        1.24033765
       90.18469       63.86486979        9.93867032
       90.28439       74.74601319        1.31714836
       90.38408       78.88985006        1.37605045
       90.48377       85.43211028        1.40537130
       90.58347       88.32141459        1.40658404
       90.68316       79.49781417       10.39164009
       90.78286       92.81610379        1.38046282
       90.88255       92.32863766        1.33967632
       90.98224       99.00626054        1.43565117
       91.08194       99.58002919        1.48707196
       91.18163       89.68865533       11.25772065
       91.28132       97.83860331        1.51754517
       91.38102       98.41908843        1.56246512
       91.48071      101.79930862        1.55026244
       91.58040       93.77142540        1.43856604
       91.68010       76.52284680        9.82550556
       91.77979       87.73157901        1.33547795
       91.87948       85.01222138        1.29419742
       91.97918       81.95564865        1.31938408
       92.07887       81.21486134        1.36812139
       92.17856       84.14610142       10.58951332
       92.27826       79.45367813        1.39750111
       92.37795       79.87710986        1.43448179
       92.47764       78.06301085        1.34611610
       92.57734       77.29511955        1.29939722
       92.67703       96.17353507        9.41478860
       92.77672       79.81018955        1.27267927
       92.87642       83.12421213        1.27417877
       92.97611       85.65186624        1.35069325
       93.07580       87.72252250        1.56020530
       93.17550       91.30979812        2.99356416
       93.27519       90.00826689        1.45680802
       93.37488       91.49381017        1.42783318
       93.47458       94.31900098        1.46579469
       93.57427       97.53128735        1.72345180
       93.67396      100.11827338        2.35999987
       93.77366       99.73563106        1.45916218
       93.87335       97.36790294        1.37702713
       93.97304       93.26429210        1.40427188
       94.07274       93.51902652        1.82566772
       94.17243       90.71682102        2.05147458
       94.27212       92.53238472        1.54328404
       94.37182       91.16033944        1.49281814
       94.47151       87.11624512        1.39736852
       94.57121       85.21612403        1.82385257
       94.67090       87.74650831        1.87233345
       94.77059       85.23247138        1.43437049
       94.87029       80.50988892        1.26746985
       94.96998       75.51305737        1.24284448
       95.06967       69.45366078        1.37375861
       95.16937       66.80510394        1.84416784
       95.26906       66.89892338        1.42567334
       95.36875       64.96610278        1.27474337
       95.46845       61.78494185        1.19458169
       95.56814       59.81321321        1.35239279
       95.66783       58.92228497        1.50794681
       95.76753       59.30563397        1.25017876
       95.86722       56.84671912        1.04105567
       95.96691       53.83069311        1.05068987
       96.06661       53.86674499        1.34640794
       96.16630       52.32707332        1.41506145
       96.26599       55.26632018        1.30615626
       96.36569       48.35836159        1.09603041
       96.46538       48.20784477        1.05611319
       96.56507       47.42223603        1.29281875
       96.66477       46.31263445        1.24488535
       96.76446       44.84896387        1.09467580
       96.86415       48.12026230        0.98228757
       96.96385       48.12146017        1.01456221
       97.06354       46.51339446        1.34870248
       97.16323       47.55315613        1.30395462
       97.26293       47.81723316        1.22847324
       97.36262       48.47716311        1.14545517
       97.46231       46.74829220        1.03477382
       97.56201       51.12987337        1.37700953
       97.66170       50.66228324        1.23112343
       97.76139       50.36775469        1.11519356
       97.86109       51.20525126        1.01679188
       97.96078       53.44260820        1.06154295
       98.06047       56.90578475        1.52167285
       98.16017       56.11421789        1.34323215
       98.25986       56.23261582        1.28438378
       98.35956       58.93966538        1.24153571
       98.45925       63.20492547        1.20022334
       98.55894       65.75640794        1.59707106
       98.65864       67.22250006        1.38556996
       98.75833       68.15955341        1.30366284
       98.85802       70.04281844        1.23403447
       98.95772       68.56965792        1.21277508
       99.05741       73.30483128        1.74108095
       99.15710       73.96112494        1.50404667
       99.25680       76.55524060        1.48260183
       99.35649       77.08811312        1.41699588
       99.45618       82.97341240        1.37027454
       99.55588       84.11915496        1.84360976
       99.65557       83.97449090        1.51963942
       99.75526       85.31572621        1.43570553
       99.85496       87.30231442        1.38238642
       99.95465       83.58216098        1.32590056
      100.05434       87.70168256        1.93511861
      100.15404       86.54967960        1.61913174
      100.25373       84.49350401        1.58050991
      100.35342       83.92025453        1.56895131
      100.45312       86.16426873        1.45079974
      100.55281       82.55502878        1.86492156
      100.65250       80.73023931        1.50229691
      100.75220       81.83386953        1.40108523
      100.85189       81.48737107        1.33588683
      100.95158       79.30917076        1.28260126
      101.05128       79.98911051        1.83647092
      101.15097       82.14760333        1.53826177
      101.25066       78.09170876        1.48161496
      101.35036       76.87155243        1.48267417
      101.45005       75.34340415        1.38025100
      101.54974       72.40533336        1.68512186
      101.64944       76.16053421        1.41023745
      101.74913       74.12750103        1.31079975
      101.84882       75.70798348        1.28956110
      101.94852       79.21602740        1.38966618
      102.04821       77.75017619        1.65816561
      102.14791       77.34170177        1.49043565
      102.24760       76.46346959        1.46938907
      102.34729       75.48034090        1.45390389
      102.44699       78.67899050        1.51036844
      102.54668       81.60020823        1.61417909
      102.64637       81.01319311        1.43643525
      102.74607       84.41371546        1.39659799
      102.84576       84.27808916        1.36897092
      102.94545       84.75983394        1.56366604
      103.04515       81.80691639        1.62607836
      103.14484       84.02502476        1.53983265
      103.24453       79.58172489        1.47521577
      103.34423       84.55728412        1.50858747
      103.44392       83.47678453        1.62360993
      103.54361       86.47380374        1.60548441
      103.64331       87.33570431        1.46872782
      103.74300       88.31983222        1.40888859
      103.84269       84.54166028        1.35438314
      103.94239       86.27463403        1.64428595
      104.04208       84.13932860        1.57081659
      104.14177       85.57165026        1.54129493
      104.24147       83.16078481        1.51852637
      104.34116       84.51968227        1.54046085
      104.44085       82.38974898        1.72727436
      104.54055       78.47698503        1.52606182
      104.64024       80.39991901        1.45205625
      104.73993       77.06737303        1.35646467
      104.83963       73.55907873        1.27661761
      104.93932       72.69463898        1.53846994
      105.03901       71.23899754        1.43495939
      105.13871       72.37734228        1.39274303
      105.23840       69.33300017        1.36220884
      105.33809       69.75940639        1.37447790
      105.43779       67.96013030        1.57840160
      105.53748       68.03461631        1.41627450
      105.63717       67.41324441        1.29221165
      105.73687       63.72678291        1.19552471
      105.83656       63.69082195        1.16461612
      105.93626       62.71473030        1.46445570
      106.03595       60.43881480        1.30286549
      106.13564       58.46286829        1.23839962
      106.23534       61.33263178        1.28417958
      106.33503       57.77190067        1.25877822
      106.43472       54.99371157        1.45179834
      106.53442       55.37074162        1.26711929
      106.63411       55.11391429        1.14836963
      106.73380       56.01893732        1.10348948
      106.83350       55.77322286        1.08461878
      106.93319       56.70685670        1.41777648
      107.03288       54.63571816        1.23330409
      107.13258       56.70460400        1.21963599
      107.23227       57.59228726        1.24702302
      107.33196       55.71629500        1.22309743
      107.43166       58.60751778        1.50740586
      107.53135       56.94942495        1.28198328
      107.63104       57.77474813        1.17578698
      107.73074       59.27012625        1.14262846
      107.83043       61.97745796        1.15377377
      107.93012       61.99578776        1.52651673
      108.02982       62.86388819        1.34546094
      108.12951       63.48795141        1.28584160
      108.22920       63.96631392        1.27000270
      108.32890       65.84034259        1.27627206
      108.42859       64.71185530        1.60578226
      108.52828       65.46196393        1.37000998
      108.62798       66.51223281        1.25223691
      108.72767       65.44762499        1.19223687
      108.82736       65.18531473        1.21605096
      108.92706       63.46770754        1.51960161
      109.02675       64.72533002        1.34256258
      109.12644       64.79210985        1.31103833
      109.22614       63.63138008        1.30021111
      109.32583       65.50239182        1.43759969
      109.42552       62.34895843        1.47928278
      109.52522       64.57936356        1.35837202
      109.62491       61.90367355        1.26487242
      109.72461       62.74329993        1.21749944
      109.82430       61.81574426        1.12883014
      109.92399       59.47275827        1.43948694
      110.02369       59.68867589        1.26286529
      110.12338       59.63415557        1.25406117
      110.22307       60.66216233        1.25540373
      110.32277       60.20375329        1.27709739
      110.42246       56.62472295        1.50575158
      110.52215       56.08640598        1.26921721
      110.62185       52.80746225        1.16055713
      110.72154       57.12432850        1.12630190
      110.82123       54.00219563        1.13084367
      110.92093       53.80040236        1.31645680
      111.02062       56.01198607        1.24105658
      111.12031       55.48383238        1.24439115
      111.22001       57.01942675        1.23792880
      111.31970       56.79084852        1.34078844
      111.41939       58.97736605        1.41397024
      111.51909       56.27603982        1.25315925
      111.61878       59.02468942        1.20910026
      111.71847       62.37946788        1.15659293
      111.81817       66.54900340        1.29677369
      111.91786       64.33959916        1.34174420
      112.01755       65.34862492        1.32041698
      112.11725       70.70295645        1.38410937
      112.21694       70.70744229        1.37793738
      112.31663       74.07596607        1.55435091
      112.41633       73.62745522        1.52232313
      112.51602       75.20690301        1.41690653
      112.61571       80.88132055        1.40196286
      112.71541       82.00613420        1.33040061
      112.81510       83.56680553        1.50595193
      112.91479       89.55638856        1.58840033
      113.01449       88.02248803        1.54198167
      113.11418       88.72297463        1.54296882
      113.21387       86.90535362        1.52003809
      113.31357       89.62591017        1.71450318
      113.41326       91.30966208        1.64470454
      113.51296       93.59070297        1.56642250
      113.61265       91.97838857        1.49828020
      113.71234       94.98542045        1.45447523
      113.81204       91.85159161        1.63840192
      113.91173       90.16466003        1.57290263
      114.01142       93.09419564        1.58231548
      114.11112       88.72657571        1.54369545
      114.21081       86.93852169        1.53901754
      114.31050       89.36857391        1.76968172
      114.41020       88.87959295        1.63077594
      114.50989       87.11255126        1.51132725
      114.60958       89.92600744        1.48611172
      114.70928       87.97101541        1.41755980
      114.80897       86.68426927        1.59590029
      114.90866       86.16611943        1.50072394
      115.00836       89.54312414        1.52287942
      115.10805       89.79495317        1.53333938
      115.20774       89.27327115        1.55198699
      115.30744       89.62837459        1.78552779
      115.40713       91.38578601        1.63313774
      115.50682       89.43961171        1.52519806
      115.60652       90.78274533        1.48100869
      115.70621       91.08389636        1.42572992
      115.80590       91.94378695        1.67111261
      115.90560       94.79058831        1.53806412
      116.00529       96.55558954        1.56973496
      116.10498       96.72404176        1.58752892
      116.20468      100.83397215        1.65836048
      116.30437       96.05085929        1.92908684
      116.40406      100.83258868        1.72175636
      116.50376      103.93195306        1.65204707
      116.60345      104.66408083        1.59145603
      116.70314      109.17047669        1.57629701
      116.80284      114.80086218        1.92101429
      116.90253      114.40836936        1.72506896
      117.00222      116.85984503        1.72981159
      117.10192      120.86950567        1.80662638
      117.20161      123.24578573        1.84666112
      117.30131      128.05790464        2.25286087
      117.40100      130.11821613        1.90929581
      117.50069      134.05981921        1.84088811
      117.60039      138.33809533        1.78989532
      117.70008      143.51469717        1.76647536
      117.79977      149.81893501        2.21215174
      117.89947      149.80244115        1.92298223
      117.99916      154.88015413        1.97896985
      118.09885      158.31719672        2.03856665
      118.19855      162.80220293        2.16554167
      118.29824      167.39903520        2.40767169
      118.39793      168.40705318        2.19262790
      118.49763      174.70588269        2.10783944
      118.59732      173.95138114        2.03062275
      118.69701      181.32406595        2.16030367
      118.79671      180.82568010        2.32937903
      118.89640      174.51704706        2.13311546
      118.99609      179.84757176        2.16353361
      119.09579      177.77127211        2.17592272
      119.19548      180.38745310        2.39519655
      119.29517      179.49145835        2.48216263
      119.39487      177.48349107        2.26880771
      119.49456      177.43696087        2.13776366
      119.59425      173.94536503        2.05532753
      119.69395      166.58272693        2.12146040
      119.79364      166.52406042        2.14361806
      119.89333      162.67169990        2.05022128
      119.99303      159.88106873        1.98430821
      120.09272      152.56892313        1.98207222
      120.19241      150.76132882        2.21451106
      120.29211      147.20027327        2.16561946
      120.39180      140.83581867        2.02048566
      120.49149      136.28110334        1.84822219
      120.59119      133.41909120        1.77478785
      120.69088      128.06205490        1.87146749
      120.79057      126.63616495        1.82097721
      120.89027      127.86144428        1.79648033
      120.98996      125.45136514        1.76564389
      121.08966      120.67646944        1.74438787
      121.18935      122.26864820        2.01278013
      121.28904      118.26294920        1.92908223
      121.38874      113.34513763        1.78558468
      121.48843      118.34923996        1.72362925
      121.58812      117.02525234        1.63461069
      121.68782      116.46271426        1.80647799
      121.78751      111.66066643        1.68525305
      121.88720      116.70271540        1.70115487
      121.98690      114.08163924        1.69438931
      122.08659      109.94151768        1.69642370
      122.18628      108.68409493        1.95657911
      122.28598      109.10182170        1.84350599
      122.38567      109.74838203        1.77085292
      122.48536      108.17682012        1.66298035
      122.58506      108.33368348        1.57616783
      122.68475      108.03478209        1.78359819
      122.78444      110.69211232        1.70014209
      122.88414      107.11947146        1.65807567
      122.98383      103.13111477        1.66001839
      123.08352      104.29353362        1.65514060
      123.18322      103.05243515        1.91881387
      123.28291      102.51114167        1.73928987
      123.38260      103.11419061        1.68401669
      123.48230      106.12127701        1.64674690
      123.58199      101.30494889        1.50358262
      123.68168       97.14015765        1.67985950
      123.78138       95.84298217        1.50535596
      123.88107       96.42314794        1.47502471
      123.98076       89.89534516        1.45023397
      124.08046       91.13122657        1.44484700
      124.18015       90.76943484        1.63209653
      124.27984       87.00679618        1.43143459
      124.37954       85.54895046        1.33931472
      124.47923       81.73606503        1.27786914
      124.57893       79.45207728        1.34217467
