        5.04651       54.95099786        2.52773279
        5.14621       55.76476554        2.45415002
        5.24590       53.78701145        2.37550867
        5.34559       50.99424881        2.12120726
        5.44529       50.58357063        2.29833633
        5.54498       55.65996866        2.02836375
        5.64467       51.02805771        1.92484352
        5.74437       50.07556950        1.72118196
        5.84406       49.88867161        1.73856657
        5.94375       49.26200884        1.72525909
        6.04345       51.42173368        1.71289697
        6.14314       50.05200264        1.54724558
        6.24283       49.64898608        1.59185051
        6.34253       50.59293326        1.53271345
        6.44222       48.31052214        1.57694109
        6.54191       47.10367545        1.47506888
        6.64161       46.28804166        1.38519843
        6.74130       49.90276885        1.44426168
        6.84099       46.78816667        1.38818747
        6.94069       51.49268455        1.47848086
        7.04038       47.96884893        1.31705635
        7.14007       48.53673023        1.32210910
        7.23977       48.71418429        1.30137430
        7.33946       46.77649311        1.29466131
        7.43915       48.63013830        1.30292421
        7.53885       48.29950286        1.27451470
        7.63854       48.18987238        1.21676451
        7.73823       47.70182743        1.25700326
        7.83793       46.64800683        1.20286055
        7.93762       45.63260342        1.24098085
        8.03732       47.40733075        1.13445088
        8.13701       46.38061845        1.11699356
        8.23670       47.00081077        1.14032821
        8.33640       47.08666841        1.14168618
        8.43609       48.68808349        1.21378129
        8.53578       47.69637730        1.11895406
        8.63548       46.48257828        1.09188154
        8.73517       48.42374037        1.09328146
        8.83486       46.98464191        1.07948120
        8.93456       47.30141979        1.07756321
        9.03425       47.69825106        1.05040223
        9.13394       48.18388565        1.05774170
        9.23364       47.57138503        1.06632001
        9.33333       45.99477182        1.06978929
        9.43302       47.31280235        1.08546315
        9.53272       47.68069534        1.05287347
        9.63241       47.82918546        1.08432339
        9.73210       45.72525841        1.05800282
        9.83180       46.18882817        1.10802371
        9.93149       48.57428148        1.12823719
       10.03118       46.79555517        1.06545135
       10.13088       47.37260664        1.04633441
       10.23057       47.33078979        1.09523991
       10.33026       47.68562121        1.13636557
       10.42996       49.14303866        1.13785274
       10.52965       46.99193699        1.07748780
       10.62934       47.75533738        1.08884359
       10.72904       45.77478647        1.08171609
       10.82873       49.47396617        1.11905410
       10.92842       47.54841210        1.11537401
       11.02812       50.96202547        1.10024461
       11.12781       51.47585605        1.14546231
       11.22750       48.93699040        1.12788332
       11.32720       51.32607884        1.18625558
       11.42689       50.39671470        1.13464700
       11.52658       51.36678037        1.13190180
       11.62628       55.26289062        1.18694573
       11.72597       55.70622006        1.21702753
       11.82567       56.64632765        1.26142317
       11.92536       62.61866080        1.24139514
       12.02505       69.21958790        1.31156822
       12.12475       71.18546148        1.32894439
       12.22444       82.32148996        1.51597591
       12.32413       91.19000744        1.62029769
       12.42383      101.44580284        1.62255098
       12.52352      121.55624649        1.76611325
       12.62321      134.03638615        1.90758590
       12.72291      158.10887440        2.01709586
       12.82260      183.47106607        2.36311544
       12.92229      201.53911897        2.24988767
       13.02199      230.92566493        2.39040428
       13.12168      258.68651570        2.57479791
       13.22137      291.65277656        2.82382271
       13.32107      313.25165189        3.02084288
       13.42076      345.57038218        3.05545796
       13.52045      360.98038716        3.16036270
       13.62015      364.29946248        3.07677467
       13.71984      346.34983082        3.12564726
       13.81953      320.47384731        3.05702396
       13.91923      280.24248510        2.68430730
       14.01892      217.83507268        2.30259619
       14.11861      173.24042661        2.14202460
       14.21831      132.94934524        1.87751749
       14.31800      106.15040101        1.76571496
       14.41769       83.22571770        1.50523500
       14.51739       71.60849440        1.36204374
       14.61708       58.29162115        1.23161772
       14.71677       54.33706355        1.20845475
       14.81647       52.80189931        1.24791932
       14.91616       52.18722152        1.14090335
       15.01585       47.73489245        1.11065435
       15.11555       48.25658526        1.12967199
       15.21524       47.30954452        1.15278064
       15.31493       46.37437203        1.16881480
       15.41463       50.08517340        1.17623814
       15.51432       47.70460156        1.11228221
       15.61402       46.12268037        1.12131675
       15.71371       46.32914790        1.11611242
       15.81340       46.24885487        1.16007393
       15.91310       48.49327865        1.15431149
       16.01279       47.64233158        1.09546883
       16.11248       46.27280767        1.10854702
       16.21218       48.62110751        1.16791454
       16.31187       48.49658458        1.16926495
       16.41156       51.03541774        1.17725079
       16.51126       49.29672799        1.17651492
       16.61095       48.73538437        1.12792952
       16.71064       49.23126187        1.16951532
       16.81034       50.00592147        1.18227986
       16.91003       52.22861922        1.17351570
       17.00972       54.03794917        1.14598886
       17.10942       55.32582203        1.22564006
       17.20911       61.04463559        1.29904249
       17.30880       64.22258694        1.34412197
       17.40850       67.43331960        1.37711225
       17.50819       74.67141444        1.40745051
       17.60788       71.12886987        1.41612029
       17.70758       71.68350242        1.42751489
       17.80727       72.47807710        1.45316750
       17.90696       72.60666559        1.35989611
       18.00666       67.04259146        1.32944519
       18.10635       64.43111638        1.26758302
       18.20604       61.12818661        1.35431670
       18.30574       57.43981331        1.25105401
       18.40543       53.63069271        1.17879757
       18.50512       54.44120055        1.22519189
       18.60482       52.77972820        1.18736226
       18.70451       50.86361057        1.23168738
       18.80420       49.91702120        1.14622777
       18.90390       49.76803631        1.13229217
       19.00359       49.26224354        1.09705689
       19.10328       47.89357070        1.14438100
       19.20298       46.50210109        1.16266532
       19.30267       48.78428108        1.14369281
       19.40237       47.13402278        1.11139432
       19.50206       46.88038785        1.13625713
       19.60175       45.74683336        1.10980554
       19.70145       45.12403876        1.15576015
       19.80114       46.53097683        1.11318210
       19.90083       43.94843095        1.04519392
       20.00053       44.72693426        1.07314908
       20.10022       47.33280768        1.11226979
       20.19991       45.22715886        1.16230297
       20.29961       48.19581805        1.13697642
       20.39930       51.11305982        1.20637603
       20.49899       50.59026220        1.17931806
       20.59869       49.66399737        1.18979719
       20.69838       51.21072800        1.25280385
       20.79807       52.83104835        1.21375002
       20.89777       52.32731282        1.18060111
       20.99746       57.17919418        1.24660548
       21.09715       57.44348822        1.31611647
       21.19685       56.84526961        1.30239409
       21.29654       57.71163039        1.28016196
       21.39623       55.49641476        1.25532042
       21.49593       55.81631040        1.24095346
       21.59562       53.44071667        1.24339390
       21.69531       50.30563301        1.25464686
       21.79501       47.21688237        1.11183696
       21.89470       47.51828455        1.09029368
       21.99439       45.65660745        1.11396078
       22.09409       44.83554128        1.10660225
       22.19378       46.41531230        1.19579271
       22.29347       48.27189353        1.13582424
       22.39317       47.17139046        1.15184467
       22.49286       46.18013047        1.13872726
       22.59255       46.34033631        1.15411985
       22.69225       46.58453303        1.21942377
       22.79194       50.28719411        1.13799543
       22.89163       51.52923395        1.12948952
       22.99133       55.88122386        1.20902240
       23.09102       60.50860453        1.30678770
       23.19072       62.45316776        1.33084234
       23.29041       67.45859212        1.36616519
       23.39010       68.49667586        1.39110930
       23.48980       64.72167284        1.35696162
       23.58949       63.95094467        1.36690901
       23.68918       59.75899374        1.38927864
       23.78888       56.25292098        1.20110670
       23.88857       48.97520967        1.13509474
       23.98826       50.23733772        1.17535966
       24.08796       47.37571121        1.11904173
       24.18765       44.56169942        1.16279014
       24.28734       43.83847871        1.09804155
       24.38704       46.04959046        1.14429063
       24.48673       43.50328986        1.10812726
       24.58642       44.54932385        1.15851731
       24.68612       44.52215781        1.15663268
       24.78581       44.57076171        1.06680281
       24.88550       42.40474561        1.04005452
       24.98520       46.56007740        1.13030059
       25.08489       46.16920980        1.14800430
       25.18458       47.11176725        1.18406300
       25.28428       46.83168127        1.13781595
       25.38397       48.34560973        1.15050649
       25.48366       50.90270989        1.18771012
       25.58336       56.22448163        1.30129376
       25.68305       59.40452829        1.31199622
       25.78274       69.43069065        1.33908726
       25.88244       84.83885580        1.51820174
       25.98213      105.77413033        1.70985571
       26.08182      127.79533108        1.92953016
       26.18152      155.34308197        2.17999457
       26.28121      178.11451710        2.20884261
       26.38090      194.10295500        2.32592942
       26.48060      197.61750357        2.41183739
       26.58029      184.20775936        2.42853753
       26.67998      170.59222382        2.20708640
       26.77968      142.72850092        1.99388581
       26.87937      112.95378353        1.74742501
       26.97907       92.84812127        1.57055128
       27.07876       77.68042287        1.54628585
       27.17845       74.29785175        1.44507665
       27.27815       77.24492246        1.43907063
       27.37784       81.60468410        1.53695262
       27.47753       85.56857544        1.55078652
       27.57723       83.49148223        1.60457314
       27.67692       83.15776647        1.56306394
       27.77661       75.22935979        1.41865614
       27.87631       68.52048808        1.33121975
       27.97600       62.29464158        1.29773296
       28.07569       54.98899883        1.29018321
       28.17539       54.82917232        1.23336374
       28.27508       51.33672178        1.19383244
       28.37477       48.99321505        1.19392738
       28.47447       48.99865192        1.18466870
       28.57416       50.49226147        1.30021213
       28.67385       52.34702906        1.17790371
       28.77355       53.40973853        1.16836706
       28.87324       53.52588110        1.20078641
       28.97293       57.59603764        1.24868629
       29.07263       57.63393637        1.36157939
       29.17232       56.56014855        1.23088437
       29.27201       54.34535789        1.22874489
       29.37171       53.50226497        1.25414895
       29.47140       52.22568961        1.22474905
       29.57109       49.60609071        1.26562411
       29.67079       48.27504018        1.13659807
       29.77048       47.31568995        1.12782079
       29.87017       48.18703887        1.11585327
       29.96987       46.19962544        1.14554173
       30.06956       47.34301966        1.19641882
       30.16925       46.47841070        1.11613395
       30.26895       46.93567641        1.12591369
       30.36864       48.11966237        1.15870441
       30.46833       49.14255176        1.18286115
       30.56803       51.29439127        1.27664928
       30.66772       56.32577042        1.24512929
       30.76742       59.25923727        1.25169006
       30.86711       61.53212587        1.30097463
       30.96680       63.17789573        1.32594579
       31.06650       64.85898951        1.40878402
       31.16619       62.53621005        1.30055876
       31.26588       58.54443116        1.25063902
       31.36558       57.27293131        1.25313223
       31.46527       56.46803065        1.29466924
       31.56496       61.33419250        1.37120027
       31.66466       63.00887868        1.29978155
       31.76435       70.14631632        1.37030398
       31.86404       78.24994597        1.42859255
       31.96374       84.59403471        1.52008918
       32.06343       86.83821280        1.59388119
       32.16312       88.80127509        1.51485846
       32.26282       80.20273746        1.47444205
       32.36251       77.73984434        1.50966226
       32.46220       74.60899020        1.50539142
       32.56190       69.57141881        1.47926016
       32.66159       65.86994942        1.36674366
       32.76128       64.51681849        1.32223358
       32.86098       64.99738641        1.34710629
       32.96067       62.23363007        1.33454147
       33.06036       61.42341491        1.34998076
       33.16006       57.31623872        1.22793678
       33.25975       56.18649383        1.25522208
       33.35944       56.45992035        1.26510391
       33.45914       58.92676708        1.34172258
       33.55883       58.38970093        1.33869320
       33.65852       61.70555655        1.28340746
       33.75822       65.85372736        1.32368795
       33.85791       73.73749916        1.40667457
       33.95760       80.50020593        1.51337704
       34.05730       94.16593204        1.62145355
       34.15699      104.08629881        1.67789281
       34.25668      121.44011186        1.80665420
       34.35638      147.93568165        2.04648059
       34.45607      184.92952832        2.41109387
       34.55577      229.27398196        2.55953046
       34.65546      293.16887252        2.77747981
       34.75515      362.40573742        3.14849843
       34.85485      424.06817475        3.38188938
       34.95454      441.94720037        3.56093130
       35.05423      438.20179237        3.66788530
       35.15393      386.17035228        3.23150611
       35.25362      317.50692444        2.97428228
       35.35331      248.91322637        2.70058976
       35.45301      181.98466776        2.40751694
       35.55270      140.82100481        2.06127375
       35.65239      112.54762598        1.77919200
       35.75209       88.64811517        1.56667658
       35.85178       78.14562817        1.46861608
       35.95147       70.49563578        1.42742279
       36.05117       71.10288407        1.40413644
       36.15086       65.53418212        1.29595867
       36.25055       63.50063931        1.33273096
       36.35025       57.50427160        1.29282717
       36.44994       59.71041447        1.34384289
       36.54963       57.99533748        1.27129970
       36.64933       56.10820560        1.23170649
       36.74902       54.25673555        1.22379209
       36.84871       55.65978681        1.23063350
       36.94841       52.47958811        1.29213255
       37.04810       53.31548078        1.14840701
       37.14779       51.77612134        1.15485073
       37.24749       48.30902026        1.14640506
       37.34718       48.46334383        1.17753185
       37.44687       48.77567396        1.26898560
       37.54657       48.11823842        1.15063996
       37.64626       48.56056052        1.15150223
       37.74595       48.63313729        1.13434760
       37.84565       47.89834370        1.19110972
       37.94534       49.31489173        1.23131282
       38.04503       47.97552351        1.09762376
       38.14473       46.05902813        1.08594285
       38.24442       46.79326919        1.11459777
       38.34412       47.72456404        1.17687398
       38.44381       47.92999842        1.27528954
       38.54350       50.52170554        1.16724507
       38.64320       46.17700968        1.11237472
       38.74289       53.06700869        1.20836788
       38.84258       54.11064777        1.22318759
       38.94228       54.75709618        1.29063187
       39.04197       59.22765549        1.21053123
       39.14166       65.69746467        1.32653811
       39.24136       69.90064673        1.36480376
       39.34105       70.27210481        1.41614470
       39.44074       70.04338142        1.54214606
       39.54044       68.67346499        1.36526777
       39.64013       70.50420569        1.37921805
       39.73982       67.46335232        1.35448292
       39.83952       64.11451350        1.31137611
       39.93921       60.48393116        1.35037494
       40.03890       60.94070335        1.24076915
       40.13860       57.44580462        1.20296339
       40.23829       56.51022380        1.23529745
       40.33798       55.66656303        1.26422327
       40.43768       54.69271006        1.31105570
       40.53737       56.24079460        1.23399684
       40.63706       57.51769911        1.27418549
       40.73676       58.69170743        1.28513240
       40.83645       57.80876417        1.28603574
       40.93614       63.35420568        1.36912590
       41.03584       65.93694222        1.31454250
       41.13553       76.92915047        1.42192697
       41.23522       92.91643432        1.60126448
       41.33492      113.03193061        1.84952055
       41.43461      139.63269408        2.12267511
       41.53430      163.18348946        2.14973876
       41.63400      192.47332144        2.38694331
       41.73369      204.99728397        2.40977686
       41.83338      216.71330717        2.54452889
       41.93308      220.11932361        2.54182569
       42.03277      224.42686870        2.34599346
       42.13247      244.37376218        2.57361928
       42.23216      292.81766093        2.82418022
       42.33185      353.16940001        3.33122488
       42.43155      417.30753422        3.56940508
       42.53124      478.22566660        3.70084907
       42.63093      526.42476635        3.89140579
       42.73063      540.35501995        3.96001730
       42.83032      535.64008136        4.01337703
       42.93001      499.31149910        3.72856704
       43.02971      429.65205053        3.26594273
       43.12940      341.11539415        2.96679383
       43.22909      261.30729812        2.72724160
       43.32879      190.95741133        2.45374050
       43.42848      150.71919741        2.13132763
       43.52817      108.27224340        1.72706835
       43.62787       84.62010286        1.52113450
       43.72756       75.19574605        1.46769913
       43.82725       66.47581143        1.44066918
       43.92695       59.68415211        1.23765921
       44.02664       58.33741688        1.21774357
       44.12633       57.16832582        1.25037756
       44.22603       54.68222937        1.27275046
       44.32572       55.76385877        1.35468421
       44.42541       55.19741509        1.28677623
       44.52511       56.24894319        1.26408304
       44.62480       54.99211980        1.26749314
       44.72449       57.97558049        1.26130938
       44.82419       60.67656846        1.44803172
       44.92388       67.57551772        1.27473647
       45.02357       75.77411620        1.36117277
       45.12327       87.94534931        1.51081962
       45.22296      105.38987554        1.69801078
       45.32265      125.00469048        2.04631703
       45.42235      148.21571874        2.02958231
       45.52204      177.89885621        2.20226937
       45.62174      204.25772680        2.40355779
       45.72143      219.91514777        2.49415798
       45.82112      233.86135518        2.81632941
       45.92082      240.18754497        2.42347265
       46.02051      235.93420430        2.45294119
       46.12020      227.70875160        2.41732928
       46.21990      214.93057804        2.46744059
       46.31959      196.39015431        2.54619082
       46.41928      179.15465625        2.24571341
       46.51898      150.26863444        2.06704186
       46.61867      120.95381338        1.84404427
       46.71836       97.37063469        1.69619546
       46.81806       84.16882002        1.63481893
       46.91775       68.11536772        1.28137685
       47.01744       61.95241538        1.25096936
       47.11714       61.98407483        1.27986706
       47.21683       69.56290777        1.39608912
       47.31652       76.89086007        1.60155265
       47.41622       86.61311077        1.60216182
       47.51591      100.50015709        1.72944105
       47.61560      113.42083912        1.82215313
       47.71530      134.18127092        2.00410616
       47.81499      149.65833732        2.17032147
       47.91468      162.82282971        1.98070587
       48.01438      172.19763725        2.03810119
       48.11407      176.55934249        2.14110005
       48.21376      175.24312185        2.22702099
       48.31346      166.37995585        2.24679979
       48.41315      159.34330592        2.04941284
       48.51284      139.99704584        1.98413158
       48.61254      121.76646075        1.84234542
       48.71223      103.66349302        1.73016786
       48.81192       87.81527544        1.58815453
       48.91162       74.98787542        1.31526550
       49.01131       64.21481767        1.25947288
       49.11100       60.24484267        1.26376946
       49.21070       54.73107725        1.26441803
       49.31039       51.92029696        1.26734675
       49.41009       50.58760412        1.18173013
       49.50978       48.87938346        1.18557235
       49.60947       48.19904896        1.18588231
       49.70917       46.70679888        1.21060318
       49.80886       48.75102129        1.20381094
       49.90855       50.37666512        1.11479182
       50.00825       50.06974042        1.13485279
       50.10794       49.38171576        1.15265005
       50.20763       52.09549842        1.23701826
       50.30733       53.01510597        1.30719071
       50.40702       53.53764072        1.23188847
       50.50671       55.04537527        1.25284911
       50.60641       56.15165654        1.26721789
       50.70610       59.11939274        1.33807411
       50.80579       55.56161085        1.27990862
       50.90549       54.59801805        1.14385708
       51.00518       57.34233346        1.18275946
       51.10487       54.80507762        1.19514708
       51.20457       53.01627447        1.25132595
       51.30426       54.88215244        1.26661591
       51.40395       57.29503223        1.24077969
       51.50365       59.21497807        1.27589038
       51.60334       59.11464181        1.29998074
       51.70303       59.59185570        1.38609095
       51.80273       60.14615990        1.27734432
       51.90242       60.19919293        1.19396355
       52.00211       61.69213904        1.21445771
       52.10181       62.89684089        1.26512312
       52.20150       63.22830150        1.39692833
       52.30119       60.69282032        1.31828518
       52.40089       65.41693593        1.34742240
       52.50058       64.21947397        1.36019682
       52.60027       61.73368749        1.35170887
       52.69997       62.70630468        1.49302667
       52.79966       60.41726401        1.23201107
       52.89935       64.65467979        1.22990722
       52.99905       72.69291541        1.32574513
       53.09874       86.73428482        1.49540487
       53.19844       96.85254132        1.80995301
       53.29813      110.21898701        1.71637413
       53.39782      123.46369593        1.87971774
       53.49752      128.46028851        1.92606729
       53.59721      144.66870755        2.04326019
       53.69690      145.89727032        2.25135482
       53.79660      154.25386855        1.93964443
       53.89629      156.74368639        1.93431904
       53.99598      147.09296588        1.91909658
       54.09568      135.62131451        1.92378226
       54.19537      122.12868455        1.99033400
       54.29506      116.78102484        1.78793196
       54.39476      103.94656863        1.69934579
       54.49445       95.06724111        1.62594523
       54.59414       91.89097338        1.62280880
       54.69384       88.49747303        1.69879608
       54.79353       87.07104871        1.44494603
       54.89322       80.61711783        1.38507054
       54.99292       80.64893379        1.42594579
       55.09261       74.13269140        1.42144668
       55.19230       67.96557618        1.46132794
       55.29200       66.72393972        1.34762026
       55.39169       63.74017379        1.35895502
       55.49138       59.45698265        1.30745993
       55.59108       56.98612299        1.32095380
       55.69077       54.56119009        1.32638779
       55.79046       54.69753413        1.16108928
       55.89016       56.50616100        1.17738493
       55.98985       55.93930133        1.17895010
       56.08954       58.50646414        1.24553982
       56.18924       62.16712058        1.38576431
       56.28893       72.91679698        1.37402449
       56.38862       83.67714415        1.52297811
       56.48832       98.94134916        1.68526081
       56.58801      105.48807473        1.79063253
       56.68770      110.52324573        1.89187642
       56.78740      111.94549516        1.62952434
       56.88709      116.40780188        1.67853732
       56.98679      106.84897594        1.60913920
       57.08648       93.97817630        1.59919668
       57.18617       84.68430913        1.57151813
       57.28587       77.00142698        1.39989246
       57.38556       69.50542639        1.41556296
       57.48525       62.57945630        1.36874043
       57.58495       58.84437038        1.35755480
       57.68464       52.94343045        1.29867422
       57.78433       53.17949526        1.13862862
       57.88403       51.73037436        1.13604231
       57.98372       52.38648006        1.16145515
       58.08341       50.94727890        1.23836950
       58.18311       52.24694229        1.28288543
       58.28280       51.06843723        1.19458042
       58.38249       52.88354623        1.27029430
       58.48219       51.74452074        1.28362134
       58.58188       53.52712318        1.31990539
       58.68157       50.07588135        1.25085142
       58.78127       53.36141915        1.12957694
       58.88096       52.84336589        1.10747460
       58.98065       55.65505301        1.17994916
       59.08035       57.08254100        1.27517325
       59.18004       57.65289950        1.30001219
       59.27973       59.19293054        1.24287704
       59.37943       64.16682760        1.33691823
       59.47912       67.71178827        1.42979713
       59.57881       70.60300468        1.52959399
       59.67851       77.07852493        1.49029779
       59.77820       85.43103895        1.44266217
       59.87789       90.86841799        1.48273936
       59.97759      101.30670474        1.63819444
       60.07728      105.54275774        1.81090322
       60.17697      109.03033471        1.75355245
       60.27667      109.36642722        1.70749801
       60.37636      110.13171112        1.74674558
       60.47605      105.44980447        1.78284657
       60.57575      100.37155511        1.90600554
       60.67544       93.49681832        1.58013500
       60.77514       84.82763043        1.43052928
       60.87483       79.07852444        1.35422997
       60.97452       71.25974601        1.35400442
       61.07422       66.49012997        1.46906627
       61.17391       65.31261525        1.26119360
       61.27360       66.03306115        1.31319552
       61.37330       67.72799205        1.37934807
       61.47299       69.25340342        1.45617154
       61.57268       70.11474211        1.66624220
       61.67238       71.94609776        1.37573398
       61.77207       69.06874047        1.31266470
       61.87176       70.53953850        1.31185522
       61.97146       70.47455260        1.36135555
       62.07115       71.88243212        1.55722839
       62.17084       67.64811872        1.32333454
       62.27054       66.16327885        1.36452340
       62.37023       66.40191010        1.42145108
       62.46992       65.39215181        1.45889680
       62.56962       68.84029175        1.68140887
       62.66931       69.60464545        1.36206450
       62.76900       73.49777516        1.36436578
       62.86870       81.61197287        1.40668300
       62.96839       90.54903295        1.52936745
       63.06808       95.80556284        1.75088763
       63.16778      108.73465988        1.65643111
       63.26747      110.76621937        1.73007057
       63.36716      115.48431312        1.83345399
       63.46686      122.19200773        1.94286214
       63.56655      125.42160203        2.09126764
       63.66624      134.78173349        1.84307406
       63.76594      148.48052661        1.87977698
       63.86563      162.89892593        1.96360257
       63.96532      170.42251747        2.10200201
       64.06502      175.55494052        2.28587536
       64.16471      172.66472867        2.09673661
       64.26440      163.78968326        2.12546088
       64.36410      148.68831700        2.06525216
       64.46379      131.18446760        2.05065511
       64.56349      119.29255355        1.98978165
       64.66318       98.41953814        1.58100464
       64.76287       85.89873783        1.45839643
       64.86257       73.23510047        1.34411479
       64.96226       63.83411411        1.31409679
       65.06195       61.63891464        1.39624060
       65.16165       52.69434016        1.16420565
       65.26134       52.15064420        1.18528046
       65.36103       55.59815298        1.27719770
       65.46073       53.73068617        1.29673204
       65.56042       57.87775615        1.40585747
       65.66011       56.20695523        1.20795398
       65.75981       58.90565462        1.22435769
       65.85950       59.15264221        1.21909710
       65.95919       60.23253689        1.28777210
       66.05889       66.83772644        1.40344720
       66.15858       71.26348503        1.37821288
       66.25827       76.29470300        1.47494017
       66.35797       88.27939371        1.65328671
       66.45766       96.48925208        1.83679883
       66.55735      112.72829537        1.98562194
       66.65705      128.10438785        1.87824645
       66.75674      141.68249679        1.92534546
       66.85643      156.22694463        1.99940524
       66.95613      162.60500901        2.12108059
       67.05582      171.83842851        2.19739846
       67.15551      170.31566778        2.08167999
       67.25521      161.36070917        2.12627543
       67.35490      150.79508815        2.16345646
       67.45459      135.66358283        2.16349341
       67.55429      121.75828163        1.96328842
       67.65398      101.91174830        1.60931262
       67.75367       85.86943655        1.46461181
       67.85337       75.52852499        1.39015127
       67.95306       76.07969284        1.49200788
       68.05275       78.65520840        1.43661331
       68.15245       82.35716718        1.45749886
       68.25214       88.99606935        1.60835346
       68.35184       90.94856441        1.69443022
       68.45153      100.35360624        1.95987019
       68.55122      105.81404272        1.73385104
       68.65092      116.56495534        1.69665364
       68.75061      126.45997160        1.78590102
       68.85030      129.49991320        1.84216387
       68.95000      127.49553800        2.07221781
       69.04969      123.64878741        1.72327330
       69.14938      115.42567020        1.71178206
       69.24908      102.55658584        1.72261864
       69.34877       92.48604250        1.69154890
       69.44846       84.63081725        1.87658354
       69.54816       75.09982368        1.37796171
       69.64785       65.70108242        1.27040959
       69.74754       59.84590431        1.22449377
       69.84724       55.93398528        1.21453776
       69.94693       54.52563051        1.35326682
       70.04662       49.16319075        1.05651832
       70.14632       46.92884586        1.07329641
       70.24601       47.42039103        1.15523654
       70.34570       46.26253410        1.20739627
       70.44540       45.69491035        1.41381558
       70.54509       48.02027331        1.13454296
       70.64478       48.74291389        1.14145118
       70.74448       52.39798231        1.20238754
       70.84417       52.00406424        1.24298178
       70.94386       52.30998558        1.36846761
       71.04356       49.34663091        1.09974557
       71.14325       51.17888571        1.16392879
       71.24294       51.96286373        1.23401890
       71.34264       54.40211650        1.33895875
       71.44233       51.93727309        1.45976637
       71.54202       55.59278483        1.22970249
       71.64172       54.11508307        1.18012302
       71.74141       54.30901470        1.16079033
       71.84110       52.86113497        1.18541467
       71.94080       51.24590938        1.27177151
       72.04049       52.10065765        1.08540159
       72.14019       50.90401004        1.11777506
       72.23988       50.73267974        1.16756361
       72.33957       52.05821669        1.32116539
       72.43927       51.19927413        1.44224698
       72.53896       52.58752098        1.17200023
       72.63865       52.41751598        1.14371698
       72.73835       55.65063914        1.15267464
       72.83804       57.01530289        1.23207466
       72.93773       58.76787583        1.32877792
       73.03743       60.78449274        1.17309825
       73.13712       62.22415203        1.25174852
       73.23681       65.39280815        1.34829334
       73.33651       67.97962551        1.51279515
       73.43620       63.23760162        1.58012452
       73.53589       62.67202022        1.26893144
       73.63559       66.70435212        1.28874259
       73.73528       66.28225737        1.27880269
       73.83497       64.85680615        1.34101681
       73.93467       64.86277798        1.41215986
       74.03436       66.13031886        1.26196570
       74.13405       64.87884104        1.30305332
       74.23375       63.18678062        1.33942082
       74.33344       63.57375461        1.47904689
       74.43313       63.80659986        1.53757052
       74.53283       66.12863818        1.33004691
       74.63252       67.67575689        1.33583540
       74.73221       72.96746097        1.38054594
       74.83191       72.90646017        1.46384599
       74.93160       78.37021309        1.53507847
       75.03129       78.74007277        1.36792699
       75.13099       82.29455772        1.44865080
       75.23068       89.83550542        1.57909751
       75.33037       95.86691248        1.79335113
       75.43007      103.08224808        1.88680492
       75.52976      109.21612170        1.68712653
       75.62945      117.40016045        1.74799935
       75.72915      127.57608623        1.81544551
       75.82884      132.94279582        1.99555288
       75.92854      134.98828819        1.88771370
       76.02823      145.79253542        1.84050623
       76.12792      152.29659388        1.96652300
       76.22762      153.08130439        2.08015499
       76.32731      150.23498338        2.32711265
       76.42700      149.69359338        2.19237702
       76.52670      145.58212408        1.99434272
       76.62639      139.26985512        1.92561667
       76.72608      129.63165198        1.82644568
       76.82578      125.98328539        2.07454789
       76.92547      122.00958375        1.63505725
       77.02516      122.98648407        1.70149991
       77.12486      121.72565215        1.77811760
       77.22455      124.60604238        1.91571867
       77.32424      131.23886780        2.41584081
       77.42394      132.21516542        1.93616412
       77.52363      133.78190676        1.88208997
       77.62332      141.00819140        1.92384212
       77.72302      145.81696750        1.96106199
       77.82271      143.33979016        2.27996961
       77.92240      149.05731873        1.78068217
       78.02210      147.03444594        1.90820790
       78.12179      143.57198121        2.01370745
       78.22148      141.57868468        2.11449947
       78.32118      130.24600642        2.35246205
       78.42087      127.39952896        1.83098176
       78.52056      121.98707742        1.84995143
       78.62026      114.09281840        1.77465968
       78.71995      105.64205471        1.71298809
       78.81964       98.02780093        1.84274099
       78.91934       92.13326974        1.38406199
       79.01903       82.79745977        1.43808938
       79.11872       74.58437120        1.42011328
       79.21842       70.97066317        1.47762694
       79.31811       69.60453563        1.64826909
       79.41780       64.13670225        1.28324964
       79.51750       63.72799708        1.29974237
       79.61719       65.47605312        1.32140594
       79.71689       65.65402029        1.37380382
       79.81658       63.60892289        1.43333062
       79.91627       64.40277553        1.22255630
       80.01597       61.73095440        1.23015216
       80.11566       61.67218933        1.28534067
       80.21535       64.54166925        1.40571075
       80.31505       63.50525512        1.65752041
       80.41474       64.80919765        1.28673295
       80.51443       67.19184906        1.30454185
       80.61413       71.70438125        1.39254084
       80.71382       78.34444518        1.50608676
       80.81351       81.40976775        1.72529415
       80.91321       91.58921655        1.34988205
       81.01290      106.90051243        1.57497533
       81.11259      119.68537274        1.79918047
       81.21229      142.59799045        2.12540904
       81.31198      148.89349246        2.42266085
       81.41167      171.29523736        2.03555197
       81.51137      196.42681094        2.24361194
       81.61106      208.25609053        2.41252512
       81.71075      225.94485886        2.60175085
       81.81045      239.92043106        2.84112556
       81.91014      262.29517576        2.28533510
       82.00983      278.70356381        2.51870755
       82.10953      284.57888486        2.84725497
       82.20922      290.19550934        3.19788255
       82.30891      296.10310954        3.38760357
       82.40861      301.66567094        2.78100668
       82.50830      294.87924631        2.74179490
       82.60799      288.16304429        2.91899177
       82.70769      295.11624094        3.21552902
       82.80738      286.96689478        3.02877017
       82.90707      284.74606971        2.44987965
       83.00677      274.41923388        2.56203128
       83.10646      264.72379901        2.96039205
       83.20615      255.61227224        3.23755910
       83.30585      238.76183115        2.96314766
       83.40554      225.14098014        2.39180500
       83.50524      203.21224162        2.21630258
       83.60493      182.13887820        2.31057931
       83.70462      171.09001799        2.52487606
       83.80432      156.37016119        2.10890759
       83.90401      131.72323285        1.62277416
       84.00370      111.90547245        1.55939113
       84.10340       95.51707554        1.72091882
       84.20309       86.04739432        1.98252719
       84.30278       78.68056384        1.54149634
       84.40248       73.13260105        1.31145163
       84.50217       68.92208232        1.24885198
       84.60186       64.22728274        1.36298281
       84.70156       65.23284823        1.79755639
       84.80125       65.38872819        1.25299208
       84.90094       65.02628840        1.12244724
       85.00064       63.51287163        1.14285796
       85.10033       65.16256164        1.37007659
       85.20002       67.71996380        2.39570279
       85.29972       65.87222312        1.24630718
       85.39941       66.52553732        1.27698278
       85.49910       65.73953867        1.23444044
       85.59880       69.71863671        1.42967613
       85.69849       68.48808435        2.54390114
       85.79818       66.29547106        1.17991318
       85.89788       66.24282076        1.15126181
       85.99757       63.12049001        1.15458266
       86.09726       61.55481586        1.30901523
       86.19696       65.58950502        2.59562047
       86.29665       62.00967017        1.19417939
       86.39634       60.65964332        1.20154949
       86.49604       62.64044271        1.20262809
       86.59573       57.68756220        1.22946802
       86.69542       56.38815999        2.54133652
       86.79512       57.19727483        1.06250405
       86.89481       56.08569399        1.03726208
       86.99451       54.26080981        1.05746260
       87.09420       53.53931900        1.17146144
       87.19389       48.14608803        2.63096002
       87.29359       50.97032987        1.09719409
       87.39328       50.22466636        1.10382484
       87.49297       50.22553166        1.07157151
       87.59267       48.69175499        1.07577219
       87.69236       50.38549637        3.27472947
       87.79205       50.93217533        1.02565711
       87.89175       49.68579759        1.00482990
       87.99144       50.50816376        1.05570674
       88.09113       49.54988595        1.11135644
       88.19083       46.54587162        5.69933778
       88.29052       50.64899697        1.13073900
       88.39021       48.07401010        1.10886309
       88.48991       49.21833635        1.07682954
       88.58960       52.02761280        1.07227032
       88.68929       51.00496777        8.22418458
       88.78899       50.58725600        1.02051354
       88.88868       50.05440627        0.99293529
       88.98837       50.23845750        1.03464822
       89.08807       48.66696029        1.04299900
       89.18776       47.14332357        8.35207191
       89.28745       50.47228244        1.07924272
       89.38715       51.67148591        1.10325156
       89.48684       55.16756158        1.11570907
       89.58653       55.78234881        1.09913803
       89.68623       67.62781439        9.81515290
       89.78592       58.14067231        1.09043954
       89.88561       61.28073493        1.09763998
       89.98531       64.01226550        1.15042866
       90.08500       67.64100112        1.22665193
       90.18469       63.79696444        9.93410864
       90.28439       74.49622000        1.31503292
       90.38408       82.59004696        1.40824032
       90.48377       87.30122331        1.42086174
       90.58347       90.37292503        1.42303559
       90.68316       90.75496315       11.10826284
       90.78286       94.27571398        1.39145072
       90.88255       95.74963367        1.36453605
       90.98224       97.42297171        1.42415326
       91.08194       99.98359156        1.49021512
       91.18163      105.75216579       12.23218158
       91.28132       99.33985139        1.52933891
       91.38102      100.20277211        1.57677714
       91.48071       97.42647220        1.51648180
       91.58040       93.57098631        1.43712548
       91.68010      102.80451022       11.39984865
       91.77979       85.74573157        1.32028384
       91.87948       83.71213816        1.28430105
       91.97918       79.45369467        1.29907214
       92.07887       75.22138231        1.31649325
       92.17856       75.33439465       10.01737026
       92.27826       75.98817556        1.36662032
       92.37795       74.40550587        1.38431675
       92.47764       74.22340191        1.31251505
       92.57734       77.58936623        1.30197945
       92.67703       73.69655246        8.23561211
       92.77672       80.39495752        1.27745544
       92.87642       83.29267278        1.27557261
       92.97611       87.77241832        1.36751571
       93.07580       87.87701920        1.56170436
       93.17550       88.75423684        2.95133180
       93.27519       93.29984927        1.48348931
       93.37488       93.78908970        1.44585716
       93.47458      100.03282084        1.50995686
       93.57427       98.98004240        1.73642353
       93.67396       99.10830351        2.34815904
       93.77366       98.79738036        1.45234364
       93.87335       97.98643743        1.38152769
       93.97304       91.99960593        1.39476098
       94.07274       92.15817294        1.81238523
       94.17243       85.87134218        1.99574485
       94.27212       90.50910849        1.52632446
       94.37182       89.41611856        1.47848811
       94.47151       87.03989724        1.39685721
       94.57121       84.49498917        1.81620944
       94.67090       87.00437641        1.86449022
       94.77059       82.24996927        1.40900899
       94.87029       77.13587953        1.24057307
       94.96998       72.22756246        1.21545726
       95.06967       67.16560995        1.35093368
       95.16937       66.62218970        1.84176807
       95.26906       70.03448751        1.45897220
       95.36875       63.53869127        1.26069297
       95.46845       60.34570769        1.18061526
       95.56814       59.48296731        1.34873994
       95.66783       57.83510904        1.49402569
       95.76753       58.32301326        1.23982893
       95.86722       54.62045854        1.02046369
       95.96691       53.20636999        1.04463486
       96.06661       53.18990936        1.33799121
       96.16630       50.84996208        1.39497842
       96.26599       50.62685968        1.25002031
       96.36569       51.44552555        1.13068221
       96.46538       50.66710909        1.08289165
       96.56507       46.27484010        1.27712744
       96.66477       47.14440982        1.25614609
       96.76446       45.59956704        1.10391051
       96.86415       46.75591671        0.96828848
       96.96385       46.68019688        0.99927787
       97.06354       48.38960101        1.37582938
       97.16323       48.56346190        1.31787977
       97.26293       49.76952204        1.25348111
       97.36262       49.77437509        1.16082020
       97.46231       49.96034079        1.06993431
       97.56201       51.65485499        1.38419058
       97.66170       52.20613190        1.24990295
       97.76139       51.86424296        1.13178405
       97.86109       54.50420118        1.04923549
       97.96078       55.63740923        1.08328682
       98.06047       53.76544524        1.47903808
       98.16017       56.41642746        1.34696006
       98.25986       54.99894207        1.27025716
       98.35956       57.93095444        1.23091475
       98.45925       61.53798890        1.18431012
       98.55894       62.95677345        1.56266649
       98.65864       65.95470001        1.37248399
       98.75833       67.40571139        1.29649667
       98.85802       70.63611497        1.23936893
       98.95772       71.20421018        1.23606133
       99.05741       73.19414783        1.73989002
       99.15710       73.93102081        1.50385199
       99.25680       76.43418226        1.48153416
       99.35649       77.65318286        1.42231496
       99.45618       82.74279627        1.36846065
       99.55588       87.50806071        1.88074502
       99.65557       82.19084066        1.50343260
       99.75526       86.20450393        1.44331787
       99.85496       84.48415427        1.35985879
       99.95465       84.62499504        1.33429551
      100.05434       86.42541440        1.92104482
      100.15404       89.94691104        1.65092384
      100.25373       85.95259774        1.59429967
      100.35342       86.00951240        1.58859731
      100.45312       85.09273294        1.44180445
      100.55281       85.10778675        1.89384766
      100.65250       85.40164188        1.54552026
      100.75220       81.15268000        1.39531309
      100.85189       77.94762610        1.30648534
      100.95158       80.11738753        1.28925350
      101.05128       80.71055336        1.84491953
      101.15097       79.46933791        1.51294914
      101.25066       75.31433980        1.45499649
      101.35036       77.69983593        1.49079605
      101.45005       78.06737494        1.40522052
      101.54974       76.13443161        1.72832813
      101.64944       73.73369919        1.38757298
      101.74913       75.49762652        1.32302146
      101.84882       77.31462877        1.30334413
      101.94852       77.87875264        1.37792527
      102.04821       77.38523754        1.65437262
      102.14791       79.83539778        1.51451936
      102.24760       79.77623176        1.50116970
      102.34729       80.87789150        1.50538904
      102.44699       80.76241023        1.53046215
      102.54668       80.34133278        1.60172888
      102.64637       84.75353477        1.46952445
      102.74607       84.35940066        1.39625081
      102.84576       88.13417248        1.40023368
      102.94545       85.26131734        1.56843039
      103.04515       86.49692315        1.67244177
      103.14484       86.08178282        1.55879441
      103.24453       87.74636152        1.54960387
      103.34423       83.24002173        1.49683382
      103.44392       84.10395835        1.62985608
      103.54361       87.38994866        1.61413981
      103.64331       85.68112449        1.45477339
      103.74300       87.66545047        1.40373263
      103.84269       88.55518876        1.38645900
      103.94239       87.00512046        1.65139876
      104.04208       85.74350058        1.58592873
      104.14177       81.44285569        1.50354656
      104.24147       84.98716488        1.53532464
      104.34116       81.66898496        1.51422154
      104.44085       83.28493739        1.73681779
      104.54055       77.15804161        1.51322693
      104.64024       79.17824352        1.44102840
      104.73993       79.00181761        1.37357991
      104.83963       74.10802617        1.28149331
      104.93932       71.51431318        1.52598028
      105.03901       71.12274845        1.43389005
      105.13871       70.66301927        1.37617045
      105.23840       69.87792317        1.36768056
      105.33809       69.64548337        1.37345287
      105.43779       66.46206634        1.56094318
      105.53748       67.02033614        1.40573327
      105.63717       68.29796660        1.30080172
      105.73687       61.99473524        1.17918285
      105.83656       60.76827741        1.13755086
      105.93626       63.03285945        1.46829222
      106.03595       60.85683179        1.30748088
      106.13564       57.50201489        1.22823160
      106.23534       56.72387491        1.23488098
      106.33503       56.38425353        1.24360159
      106.43472       57.14115097        1.48009572
      106.53442       53.04247164        1.24018445
      106.63411       52.76904158        1.12366665
      106.73380       51.76625997        1.06069810
      106.83350       51.03225638        1.03740131
      106.93319       55.12709232        1.39791590
      107.03288       53.73656952        1.22316698
      107.13258       58.12928447        1.23501727
      107.23227       55.60285467        1.22530190
      107.33196       55.31182279        1.21872417
      107.43166       54.84067191        1.45807542
      107.53135       56.03342110        1.27168612
      107.63104       58.92108986        1.18753171
      107.73074       61.44160111        1.16354786
      107.83043       60.51766992        1.14013226
      107.93012       63.18664639        1.54128874
      108.02982       64.88762648        1.36714640
      108.12951       64.43377855        1.29552483
      108.22920       62.24975855        1.25286490
      108.32890       64.12649152        1.25957035
      108.42859       69.74175447        1.66744186
      108.52828       66.58801653        1.38190163
      108.62798       67.22520490        1.25905691
      108.72767       68.50236126        1.21996598
      108.82736       68.44031282        1.24627905
      108.92706       66.77958589        1.55904442
      109.02675       66.10294264        1.35694273
      109.12644       67.72027814        1.34057499
      109.22614       66.31066407        1.32752745
      109.32583       65.71161040        1.44001265
      109.42552       64.93856213        1.50994174
      109.52522       67.60416906        1.39007259
      109.62491       64.52321621        1.29157381
      109.72461       64.88256326        1.23826746
      109.82430       63.01274921        1.13984088
      109.92399       63.25621021        1.48487807
      110.02369       63.10280602        1.29873416
      110.12338       61.12125915        1.26976322
      110.22307       60.96522031        1.25864384
      110.32277       58.82197558        1.26239011
      110.42246       58.62914955        1.53239391
      110.52215       59.11935806        1.30332003
      110.62185       58.09963452        1.21764086
      110.72154       54.41563034        1.09925221
      110.82123       54.75153941        1.13877830
      110.92093       54.06039456        1.31974530
      111.02062       56.00761321        1.24110135
      111.12031       56.11786809        1.25160317
      111.22001       57.14074506        1.23934360
      111.31970       59.08441453        1.36780851
      111.41939       59.83790391        1.42439882
      111.51909       56.87289435        1.25990842
      111.61878       58.72439704        1.20609864
      111.71847       60.64384406        1.14040522
      111.81817       64.38684439        1.27553270
      111.91786       66.94275307        1.36884662
      112.01755       67.61533055        1.34333016
      112.11725       71.09558071        1.38807066
      112.21694       69.05658662        1.36177983
      112.31663       73.17730730        1.54496106
      112.41633       75.66734847        1.54349423
      112.51602       75.80781476        1.42269287
      112.61571       78.29923573        1.37938136
      112.71541       85.28229013        1.35697338
      112.81510       85.23337929        1.52109774
      112.91479       89.53314650        1.58831215
      113.01449       88.01112040        1.54199727
      113.11418       87.37276873        1.53122551
      113.21387       92.56618337        1.56919304
      113.31357       88.60576003        1.70478464
      113.41326       89.60404506        1.62929570
      113.51296       93.13349186        1.56268385
      113.61265       92.72342624        1.50448841
      113.71234       90.49991355        1.41960038
      113.81204       92.62968643        1.64549541
      113.91173       90.54043635        1.57631604
      114.01142       89.88328348        1.55472954
      114.11112       88.85571107        1.54494142
      114.21081       83.61250357        1.50922819
      114.31050       90.47907444        1.78084605
      114.41020       90.04435659        1.64161722
      114.50989       88.49420834        1.52345373
      114.60958       84.86339698        1.44352515
      114.70928       82.58004001        1.37328115
      114.80897       82.07698931        1.55277527
      114.90866       80.27463623        1.44831956
      115.00836       80.31619124        1.44192516
      115.10805       86.47348818        1.50465085
      115.20774       83.20319198        1.49808795
      115.30744       84.99930876        1.73865540
      115.40713       91.00887058        1.62986714
      115.50682       87.98440141        1.51277569
      115.60652       88.57913999        1.46292029
      115.70621       89.53168825        1.41355845
      115.80590       92.36355477        1.67507342
      115.90560       92.86669126        1.52238700
      116.00529       95.15081448        1.55831425
      116.10498       96.92900955        1.58934080
      116.20468       99.66908398        1.64880979
      116.30437      100.71473749        1.97583819
      116.40406       99.79897638        1.71297531
      116.50376      101.07837347        1.62916874
      116.60345      103.49483018        1.58259537
      116.70314      112.78431016        1.60249770
      116.80284      116.26850035        1.93349903
      116.90253      119.42957458        1.76296027
      117.00222      121.76908423        1.76620848
      117.10192      126.56246496        1.84919041
      117.20161      129.21506830        1.89139017
      117.30131      129.37060657        2.26465201
      117.40100      133.14083980        1.93169393
      117.50069      138.52200094        1.87170683
      117.60039      144.65828433        1.83086774
      117.70008      149.71485977        1.80475627
      117.79977      153.86780781        2.24232947
      117.89947      158.75958680        1.98040644
      117.99916      159.91437834        2.01137922
      118.09885      160.95980070        2.05585348
      118.19855      162.59618849        2.16431715
      118.29824      172.71453639        2.44623580
      118.39793      168.69947247        2.19471699
      118.49763      173.04750902        2.09784645
      118.59732      180.04404497        2.06647188
      118.69701      178.65298594        2.14429295
      118.79671      175.63034734        2.29542710
      118.89640      177.12600721        2.14935714
      118.99609      176.90870960        2.14572371
      119.09579      176.99760673        2.17128608
      119.19548      176.71636793        2.37057181
      119.29517      180.92066482        2.49233548
      119.39487      175.30590125        2.25484326
      119.49456      170.58748379        2.09575127
      119.59425      170.16438045        2.03275011
      119.69395      165.75007131        2.11624821
      119.79364      163.10377427        2.12139448
      119.89333      157.00927181        2.01397396
      119.99303      153.78992473        1.94587301
      120.09272      146.12208098        1.93945124
      120.19241      145.81643276        2.17767686
      120.29211      140.16926243        2.11290431
      120.39180      136.14002406        1.98633826
      120.49149      131.19714798        1.81323346
      120.59119      127.86329759        1.73723426
      120.69088      124.26661024        1.84341890
      120.79057      120.92541153        1.77922150
      120.89027      119.71793987        1.73796426
      120.98996      118.60421090        1.71649982
      121.08966      121.91621653        1.75353286
      121.18935      120.83231731        2.00097194
      121.28904      117.73925093        1.92491515
      121.38874      117.44182537        1.81796429
      121.48843      117.16799791        1.71506339
      121.58812      117.12177282        1.63541274
      121.68782      114.31122398        1.78971317
      121.78751      116.91172284        1.72487086
      121.88720      116.11072937        1.69692669
      121.98690      114.33107290        1.69638263
      122.08659      112.62653885        1.71730449
      122.18628      112.00638618        1.98663916
      122.28598      110.83851151        1.85837313
      122.38567      110.14710869        1.77422468
      122.48536      109.21119149        1.67109797
      122.58506      107.81268302        1.57246235
      122.68475      109.87872926        1.79900637
      122.78444      104.92449676        1.65504572
      122.88414      109.35029073        1.67550863
      122.98383      106.50799537        1.68730346
      123.08352      106.85336697        1.67560596
      123.18322      102.76910155        1.91629893
      123.28291      101.55161136        1.73120218
      123.38260       99.87947029        1.65732832
      123.48230      103.52511908        1.62645289
      123.58199      101.66283392        1.50636810
      123.68168       97.75076028        1.68529344
      123.78138       94.56966679        1.49536822
      123.88107       93.71277145        1.45411678
      123.98076       91.47651498        1.46312357
      124.08046       89.15969937        1.42914098
      124.18015       91.46574622        1.63850773
      124.27984       88.76145794        1.44599411
      124.37954       84.63320394        1.33218436
      124.47923       86.04181073        1.31139233
      124.57893       76.58174950        1.31767362
