        5.04651       53.80492755        2.50050310
        5.14621       61.68966782        2.58112226
        5.24590       51.44401036        2.32241587
        5.34559       54.88844323        2.20045796
        5.44529       49.66258595        2.27666910
        5.54498       54.78319453        2.01175536
        5.64467       53.05250295        1.96229975
        5.74437       51.58002448        1.74649820
        5.84406       49.66298696        1.73417859
        5.94375       50.62954537        1.74868551
        6.04345       51.26232542        1.70979920
        6.14314       51.03706209        1.56205722
        6.24283       48.98905050        1.58080025
        6.34253       52.51056976        1.56120259
        6.44222       48.18226910        1.57444232
        6.54191       49.03826517        1.50477841
        6.64161       49.81335013        1.43679534
        6.74130       47.24273167        1.40475583
        6.84099       47.47387324        1.39800401
        6.94069       46.54404968        1.40504352
        7.04038       49.37511208        1.33595175
        7.14007       49.07634851        1.32912831
        7.23977       46.43124865        1.27009214
        7.33946       47.68860468        1.30693531
        7.43915       48.81416421        1.30506650
        7.53885       46.50712099        1.25024835
        7.63854       47.77168495        1.21115021
        7.73823       48.24415892        1.26383406
        7.83793       47.43963973        1.21275207
        7.93762       48.12959380        1.27427235
        8.03732       46.29047026        1.12068129
        8.13701       49.13289279        1.14947938
        8.23670       48.20689305        1.15462434
        8.33640       47.15787250        1.14226385
        8.43609       46.85858828        1.19038153
        8.53578       47.95987780        1.12176817
        8.63548       47.16916702        1.09966527
        8.73517       48.03149407        1.08855494
        8.83486       46.88627267        1.07807494
        8.93456       46.81163826        1.07168110
        9.03425       47.45489447        1.04744607
        9.13394       47.07937679        1.04524391
        9.23364       46.85378744        1.05795333
        9.33333       47.63509263        1.08848665
        9.43302       47.93377310        1.09231160
        9.53272       48.11846637        1.05744544
        9.63241       47.42184871        1.07940848
        9.73210       49.01573576        1.09526032
        9.83180       48.02814304        1.12965835
        9.93149       48.87585886        1.13146084
       10.03118       46.23886565        1.05880714
       10.13088       47.08288601        1.04285625
       10.23057       47.47733053        1.09666317
       10.33026       47.67320423        1.13593063
       10.42996       48.26025023        1.12726707
       10.52965       48.11838737        1.09009400
       10.62934       47.79636127        1.08903809
       10.72904       47.21742846        1.09840842
       10.82873       46.63486063        1.08608819
       10.92842       50.08022506        1.14449761
       11.02812       49.86377580        1.08800825
       11.12781       49.07534473        1.11805832
       11.22750       49.24867475        1.13119658
       11.32720       50.38364730        1.17497902
       11.42689       52.50455184        1.15792627
       11.52658       53.90802380        1.15937437
       11.62628       55.49496339        1.18914535
       11.72597       56.27096094        1.22289709
       11.82567       59.00952325        1.28724937
       11.92536       60.23262275        1.21710527
       12.02505       64.65047919        1.26701875
       12.12475       74.01925964        1.35493200
       12.22444       79.75356168        1.49163395
       12.32413       90.02584941        1.60945134
       12.42383       98.49303440        1.59819556
       12.52352      115.33387650        1.71950960
       12.62321      134.30304563        1.90902179
       12.72291      154.83252106        1.99535905
       12.82260      179.47395320        2.33632230
       12.92229      200.32465220        2.24244406
       13.02199      228.60844776        2.37759700
       13.12168      255.73676421        2.55917755
       13.22137      284.52467627        2.78772129
       13.32107      314.52192942        3.02634549
       13.42076      336.33843846        3.01266301
       13.52045      358.72928029        3.14947136
       13.62015      364.03792678        3.07488375
       13.71984      347.58589366        3.13058012
       13.81953      315.85830874        3.03369491
       13.91923      280.33993894        2.68411705
       14.01892      219.98899184        2.31354911
       14.11861      166.98116635        2.10198690
       14.21831      136.08759703        1.89928028
       14.31800      104.38094524        1.75038805
       14.41769       85.51219760        1.52551066
       14.51739       71.35454700        1.35927208
       14.61708       63.31290099        1.28347184
       14.71677       54.01966355        1.20460296
       14.81647       53.61565635        1.25721782
       14.91616       49.71841803        1.11321268
       15.01585       47.68355389        1.10977504
       15.11555       46.77736079        1.11188472
       15.21524       48.43002759        1.16610400
       15.31493       47.05822299        1.17713261
       15.41463       48.37883276        1.15566707
       15.51432       47.70470738        1.11200301
       15.61402       48.08387734        1.14469894
       15.71371       47.67521059        1.13197851
       15.81340       47.60115528        1.17667114
       15.91310       46.91960122        1.13507823
       16.01279       48.33590439        1.10316265
       16.11248       45.41363138        1.09789707
       16.21218       45.56576196        1.13021657
       16.31187       47.28018647        1.15416742
       16.41156       48.13010461        1.14284567
       16.51126       49.17190828        1.17472310
       16.61095       50.63734840        1.14951556
       16.71064       49.10997361        1.16777432
       16.81034       49.96839153        1.18153662
       16.91003       53.60625203        1.18864990
       17.00972       53.69553286        1.14205058
       17.10942       58.89707722        1.26441916
       17.20911       60.73868154        1.29544265
       17.30880       62.70168411        1.32770545
       17.40850       66.06896686        1.36270109
       17.50819       71.84063492        1.38002976
       17.60788       74.16081678        1.44577746
       17.70758       75.24067767        1.46232001
       17.80727       74.99883906        1.47798088
       17.90696       71.29320831        1.34713824
       18.00666       66.61875691        1.32488278
       18.10635       63.01735679        1.25322102
       18.20604       59.26844659        1.33313272
       18.30574       54.58322004        1.21911864
       18.40543       53.40842987        1.17604668
       18.50512       55.30371645        1.23458547
       18.60482       54.15782160        1.20251880
       18.70451       53.09036443        1.25814109
       18.80420       50.80534034        1.15612656
       18.90390       48.24265728        1.11446391
       19.00359       48.18920141        1.08472834
       19.10328       49.95078512        1.16849046
       19.20298       48.68387409        1.18941902
       19.30267       46.17274388        1.11227656
       19.40237       45.70198842        1.09404962
       19.50206       47.60645172        1.14476284
       19.60175       45.05148355        1.10103403
       19.70145       47.87926088        1.19033748
       19.80114       45.73509811        1.10331170
       19.90083       46.11464591        1.07045460
       20.00053       46.21878779        1.09068182
       20.10022       46.47785709        1.10186768
       20.19991       49.82928194        1.21989637
       20.29961       46.82967202        1.12040982
       20.39930       49.64788746        1.18859864
       20.49899       50.36273618        1.17635707
       20.59869       50.54101055        1.19999100
       20.69838       51.74282098        1.25900169
       20.79807       53.56645811        1.22189217
       20.89777       53.72360256        1.19600619
       20.99746       57.11529360        1.24559198
       21.09715       55.44784409        1.29263609
       21.19685       59.19773132        1.32884502
       21.29654       58.91372657        1.29315460
       21.39623       55.44006871        1.25436432
       21.49593       56.13379399        1.24417805
       21.59562       52.10079089        1.22733968
       21.69531       53.92615142        1.29884950
       21.79501       48.25919490        1.12379974
       21.89470       46.00097547        1.07241749
       21.99439       46.60943631        1.12527862
       22.09409       45.07992130        1.10934370
       22.19378       45.49604882        1.18355516
       22.29347       44.79664934        1.09376496
       22.39317       45.36985540        1.12927878
       22.49286       45.87108822        1.13461207
       22.59255       47.05164662        1.16267973
       22.69225       48.35433763        1.24213579
       22.79194       50.02892331        1.13477287
       22.89163       52.98257279        1.14507687
       22.99133       53.59151849        1.18359993
       23.09102       59.93285998        1.30020175
       23.19072       64.25718045        1.34967249
       23.29041       66.34364943        1.35443400
       23.39010       66.58821497        1.37115533
       23.48980       67.42981137        1.38484350
       23.58949       64.51475600        1.37260282
       23.68918       62.43561353        1.41982701
       23.78888       54.95653897        1.18683256
       23.88857       51.29157516        1.16142972
       23.98826       46.53885912        1.13083493
       24.08796       48.58189320        1.13296000
       24.18765       45.79467043        1.17852088
       24.28734       44.30333375        1.10358760
       24.38704       44.37895543        1.12299257
       24.48673       43.70962659        1.11048002
       24.58642       43.88979261        1.14959295
       24.68612       45.34841707        1.16705557
       24.78581       45.62384987        1.07909996
       24.88550       47.04374984        1.09537122
       24.98520       44.22901222        1.10127430
       25.08489       47.30598768        1.16180498
       25.18458       48.04269270        1.19544202
       25.28428       46.21984999        1.13004963
       25.38397       47.06511493        1.13483049
       25.48366       47.85675926        1.15121258
       25.58336       53.75715299        1.27198954
       25.68305       57.52371854        1.29064881
       25.78274       68.35760005        1.32831411
       25.88244       83.53060283        1.50600246
       25.98213      106.35093415        1.71411562
       26.08182      127.50745340        1.92685299
       26.18152      145.96727850        2.11196150
       26.28121      178.84870931        2.21289414
       26.38090      193.38319438        2.32097530
       26.48060      195.35634314        2.39721202
       26.58029      183.17490683        2.42102745
       26.67998      169.34283413        2.19834369
       26.77968      143.48847879        1.99873961
       26.87937      109.95064545        1.72342448
       26.97907       89.32479000        1.53988615
       27.07876       79.55709161        1.56456217
       27.17845       77.29674010        1.47373656
       27.27815       79.04506999        1.45546829
       27.37784       80.63684694        1.52737496
       27.47753       85.57831408        1.55048530
       27.57723       86.55309714        1.63349291
       27.67692       82.64410254        1.55780891
       27.77661       78.27153886        1.44684689
       27.87631       69.98163007        1.34506892
       27.97600       59.75658796        1.27058773
       28.07569       58.25220259        1.32773110
       28.17539       50.91310322        1.18803905
       28.27508       50.34120072        1.18186091
       28.37477       52.23938446        1.23267661
       28.47447       50.07754356        1.19738377
       28.57416       47.91416162        1.26614891
       28.67385       50.71051983        1.15898622
       28.77355       52.24016495        1.15516488
       28.87324       54.47469970        1.21111762
       28.97293       55.10540717        1.22097451
       29.07263       59.63292814        1.38473937
       29.17232       57.49312912        1.24072287
       29.27201       56.97989462        1.25797546
       29.37171       53.16830749        1.24989886
       29.47140       51.49769577        1.21584523
       29.57109       50.39677098        1.27538468
       29.67079       46.59363877        1.11628131
       29.77048       46.69716302        1.12011798
       29.87017       46.92267245        1.10078999
       29.96987       44.63045860        1.12557336
       30.06956       46.78398537        1.18901077
       30.16925       45.80751602        1.10774361
       30.26895       46.28719031        1.11780107
       30.36864       49.20719138        1.17147440
       30.46833       50.09327814        1.19398726
       30.56803       53.28224183        1.30091478
       30.66772       54.75447899        1.22726179
       30.76742       59.02925730        1.24893400
       30.86711       62.39868531        1.30981341
       30.96680       66.13692295        1.35644141
       31.06650       62.60559444        1.38363664
       31.16619       60.02620364        1.27375776
       31.26588       59.35191500        1.25895286
       31.36558       56.60576718        1.24546889
       31.46527       57.50559412        1.30622799
       31.56496       59.35350254        1.34844436
       31.66466       62.40146533        1.29314790
       31.76435       71.43239183        1.38252310
       31.86404       78.65229275        1.43192053
       31.96374       85.19012259        1.52508374
       32.06343       88.29123451        1.60683866
       32.16312       85.25392913        1.48373484
       32.26282       85.49690279        1.52222868
       32.36251       77.29422630        1.50492688
       32.46220       74.84348158        1.50738823
       32.56190       70.89766534        1.49298699
       32.66159       64.82671092        1.35548609
       32.76128       63.07504771        1.30698039
       32.86098       64.29855972        1.33947457
       32.96067       65.18568341        1.36562471
       33.06036       59.03369370        1.32301453
       33.16006       55.11742822        1.20375624
       33.25975       56.73726564        1.26106590
       33.35944       55.22238925        1.25079253
       33.45914       55.96550655        1.30710930
       33.55883       59.36646925        1.34955023
       33.65852       58.98875136        1.25440003
       33.75822       63.79261577        1.30238607
       33.85791       73.84043729        1.40730692
       33.95760       79.86328363        1.50696523
       34.05730       92.47246576        1.60630800
       34.15699      106.07214723        1.69351603
       34.25668      122.55018559        1.81450806
       34.35638      146.31144339        2.03458982
       34.45607      191.92537884        2.45626255
       34.55577      230.73751850        2.56717820
       34.65546      295.90813495        2.78999874
       34.75515      369.41307899        3.17877567
       34.85485      426.17709196        3.38970088
       34.95454      443.71274607        3.56737776
       35.05423      434.18733953        3.64964682
       35.15393      387.37826505        3.23589366
       35.25362      313.07910618        2.95228727
       35.35331      249.03354807        2.70058214
       35.45301      186.31018906        2.43572002
       35.55270      138.37516361        2.04260795
       35.65239      105.75325368        1.72380811
       35.75209       89.47537638        1.57361974
       35.85178       78.32885232        1.46997631
       35.95147       74.16543545        1.46392571
       36.05117       67.36213240        1.36617738
       36.15086       68.65538540        1.32627280
       36.25055       63.18587500        1.32907422
       36.35025       62.11268768        1.34351227
       36.44994       58.22991244        1.32667471
       36.54963       57.64741219        1.26714570
       36.64933       55.81408837        1.22815168
       36.74902       55.18961372        1.23399756
       36.84871       54.80005210        1.22074749
       36.94841       55.27769688        1.32592871
       37.04810       51.90230442        1.13274300
       37.14779       51.01162357        1.14597326
       37.24749       48.18828092        1.14467800
       37.34718       48.37235153        1.17612552
       37.44687       47.73108547        1.25496094
       37.54657       46.64739740        1.13257317
       37.64626       46.52751903        1.12677512
       37.74595       46.26884068        1.10605981
       37.84565       43.94042533        1.14039033
       37.94534       47.79387227        1.21180483
       38.04503       47.41702820        1.09091959
       38.14473       46.75465496        1.09386351
       38.24442       47.57604376        1.12362942
       38.34412       48.46829359        1.18574067
       38.44381       49.10956383        1.29061490
       38.54350       50.29276954        1.16429444
       38.64320       51.38178581        1.17331052
       38.74289       52.38928191        1.20029568
       38.84258       52.09773183        1.19983309
       38.94228       55.84217158        1.30307818
       39.04197       59.40273627        1.21202117
       39.14166       65.63075801        1.32552749
       39.24136       67.59748230        1.34168424
       39.34105       69.72996487        1.41028941
       39.44074       71.76600910        1.56069609
       39.54044       72.78267575        1.40537048
       39.64013       71.13157591        1.38502268
       39.73982       67.06551938        1.35012436
       39.83952       61.96072984        1.28873915
       39.93921       62.49285510        1.37236887
       40.03890       61.00018212        1.24106440
       40.13860       58.71594721        1.21593758
       40.23829       55.55838128        1.22450006
       40.33798       56.30869190        1.27120229
       40.43768       55.89548330        1.32511547
       40.53737       55.80159991        1.22884039
       40.63706       55.21266541        1.24797691
       40.73676       59.40099184        1.29258101
       40.83645       59.93084975        1.30919531
       40.93614       64.49891133        1.38114719
       41.03584       66.14960376        1.31633895
       41.13553       77.44797580        1.42638084
       41.23522       90.07972825        1.57607859
       41.33492      110.74998404        1.83014976
       41.43461      135.36382185        2.08913985
       41.53430      160.85366848        2.13362969
       41.63400      189.73231523        2.36906802
       41.73369      205.04410454        2.40945497
       41.83338      208.65204157        2.49543166
       41.93308      216.10849489        2.51758254
       42.03277      221.42042920        2.32940272
       42.13247      245.20781387        2.57744107
       42.23216      292.31451672        2.82100423
       42.33185      357.18121897        3.34972876
       42.43155      424.24715569        3.59893490
       42.53124      488.06084936        3.73905396
       42.63093      531.82216126        3.91106980
       42.73063      559.54258777        4.03136350
       42.83032      532.67199170        4.00086176
       42.93001      494.04170461        3.70726500
       43.02971      423.15041979        3.23961877
       43.12940      338.78320843        2.95566604
       43.22909      253.84125697        2.68663340
       43.32879      195.78208907        2.48434297
       43.42848      147.01494575        2.10417391
       43.52817      108.02468918        1.72464474
       43.62787       87.38754317        1.54556984
       43.72756       72.95349774        1.44517316
       43.82725       67.50308110        1.45144498
       43.92695       61.78466409        1.25902577
       44.02664       60.73760471        1.24233398
       44.12633       57.72072729        1.25611193
       44.22603       52.84167718        1.25075090
       44.32572       54.85101477        1.34316872
       44.42541       56.22397739        1.29840654
       44.52511       56.12515532        1.26236764
       44.62480       57.18588877        1.29230176
       44.72449       58.73105076        1.26921466
       44.82419       62.21925306        1.46603436
       44.92388       64.95123302        1.24930917
       45.02357       73.57557279        1.34083933
       45.12327       87.92453839        1.51025994
       45.22296      105.87858767        1.70154504
       45.32265      126.41083890        2.05737952
       45.42235      149.48384018        2.03782645
       45.52204      178.06107463        2.20273523
       45.62174      204.66219798        2.40537030
       45.72143      223.68698520        2.51515986
       45.82112      240.87858178        2.85825677
       45.92082      243.18031505        2.43817147
       46.02051      242.70508205        2.48785649
       46.12020      234.69015491        2.45409163
       46.21990      218.74330292        2.48894004
       46.31959      200.30077313        2.57112548
       46.41928      173.05655600        2.20614102
       46.51898      142.16782258        2.00948075
       46.61867      119.74596158        1.83427584
       46.71836       96.85255876        1.69122118
       46.81806       79.49455942        1.58811560
       46.91775       66.50866049        1.26578369
       47.01744       62.63098587        1.25751493
       47.11714       62.77991834        1.28776893
       47.21683       67.80486005        1.37790243
       47.31652       78.04444818        1.61318139
       47.41622       85.69896053        1.59323251
       47.51591       98.89650335        1.71505988
       47.61560      118.45801875        1.86203749
       47.71530      135.41842322        2.01290660
       47.81499      149.79300105        2.17076436
       47.91468      163.67074131        1.98541870
       48.01438      175.67487945        2.05831192
       48.11407      180.59461545        2.16519342
       48.21376      178.32070540        2.24617125
       48.31346      172.18898860        2.28557849
       48.41315      158.63787071        2.04430928
       48.51284      139.23825853        1.97819898
       48.61254      123.14800767        1.85239248
       48.71223      102.29412780        1.71818809
       48.81192       85.82058724        1.56950897
       48.91162       72.41611457        1.29207256
       49.01131       61.29614409        1.23008109
       49.11100       55.05195115        1.20755079
       49.21070       53.51854082        1.24996483
       49.31039       50.86723573        1.25406584
       49.41009       51.37355397        1.19060746
       49.50978       50.23970047        1.20171102
       49.60947       49.53028056        1.20190079
       49.70917       48.81335540        1.23738208
       49.80886       50.11281589        1.22025943
       49.90855       48.54156094        1.09395220
       50.00825       50.05689446        1.13442064
       50.10794       50.36365382        1.16380048
       50.20763       51.27528163        1.22689671
       50.30733       51.13564469        1.28340215
       50.40702       56.01086765        1.25981363
       50.50671       54.38609357        1.24498104
       50.60641       56.17103013        1.26711797
       50.70610       54.84810137        1.28831244
       50.80579       55.24791545        1.27595466
       50.90549       57.73624287        1.17610513
       51.00518       55.50362462        1.16327353
       51.10487       56.34201937        1.21154966
       51.20457       56.39914325        1.29045955
       51.30426       55.68225216        1.27552963
       51.40395       57.28557058        1.24036422
       51.50365       58.68547774        1.26982938
       51.60334       59.32123261        1.30193170
       51.70303       61.84061996        1.41175771
       51.80273       61.94655709        1.29607680
       51.90242       60.63105374        1.19795493
       52.00211       63.20297717        1.22899453
       52.10181       62.66758381        1.26248709
       52.20150       62.69506567        1.39064890
       52.30119       64.16053021        1.35524654
       52.40089       60.08294082        1.29075344
       52.50058       61.96938953        1.33571311
       52.60027       60.77512703        1.34079049
       52.69997       59.88548397        1.45854621
       52.79966       62.50053229        1.25284801
       52.89935       63.49222858        1.21844376
       52.99905       73.93596214        1.33675414
       53.09874       84.48232381        1.47537599
       53.19844       94.40131666        1.78629948
       53.29813      111.23008090        1.72385708
       53.39782      126.16053752        1.89983946
       53.49752      134.43421285        1.97026186
       53.59721      144.42641110        2.04101984
       53.69690      151.73560467        2.29585317
       53.79660      157.12601149        1.95732561
       53.89629      151.55723419        1.90122675
       53.99598      149.64235546        1.93534392
       54.09568      135.90206771        1.92530883
       54.19537      123.15183757        1.99822418
       54.29506      114.58770708        1.77048175
       54.39476      104.44513854        1.70301831
       54.49445       96.03317825        1.63382941
       54.59414       88.66173471        1.59345781
       54.69384       89.66590036        1.70961417
       54.79353       83.69300321        1.41611498
       54.89322       84.42103771        1.41720423
       54.99292       78.69680179        1.40813132
       55.09261       75.51381475        1.43433531
       55.19230       68.14720165        1.46292013
       55.29200       63.04699208        1.30946313
       55.39169       62.42915295        1.34450598
       55.49138       59.42637411        1.30679263
       55.59108       57.12704212        1.32225937
       55.69077       54.91771192        1.33039563
       55.79046       54.83819014        1.16229399
       55.89016       56.06988577        1.17251737
       55.98985       56.99164377        1.18973201
       56.08954       58.41945981        1.24429597
       56.18924       64.71127360        1.41360632
       56.28893       71.50496743        1.36024734
       56.38862       81.73537723        1.50472237
       56.48832       92.12044393        1.62533547
       56.58801      103.91903117        1.77672140
       56.68770      113.02399302        1.91284754
       56.78740      115.66568325        1.65617978
       56.88709      111.22462017        1.64003246
       56.98679      106.36892835        1.60509021
       57.08648       96.77069849        1.62253385
       57.18617       89.56991601        1.61608564
       57.28587       80.63297582        1.43234562
       57.38556       64.70463103        1.36522667
       57.48525       59.36622405        1.33265079
       57.58495       57.70226004        1.34392310
       57.68464       57.00408919        1.34741027
       57.78433       52.07902274        1.12645821
       57.88403       52.20044549        1.14092347
       57.98372       52.55929994        1.16308321
       58.08341       53.37996394        1.26737937
       58.18311       53.56825981        1.29873919
       58.28280       51.83897693        1.20328811
       58.38249       52.98311805        1.27117361
       58.48219       53.53605207        1.30540674
       58.58188       53.59606244        1.32042542
       58.68157       53.38209072        1.29130944
       58.78127       53.84570975        1.13442457
       58.88096       53.00240105        1.10886651
       58.98065       56.33740664        1.18688983
       59.08035       55.34351520        1.25520558
       59.18004       56.71776138        1.28905854
       59.27973       57.95732717        1.22947326
       59.37943       61.50801510        1.30847480
       59.47912       65.51372129        1.40593564
       59.57881       69.21110801        1.51398601
       59.67851       76.07886467        1.48017754
       59.77820       82.15808628        1.41423880
       59.87789       92.13443375        1.49272380
       59.97759      100.81349872        1.63376305
       60.07728      105.51306029        1.81019186
       60.17697      107.64785824        1.74187772
       60.27667      106.70054870        1.68597773
       60.37636      109.50130653        1.74126337
       60.47605      104.50422621        1.77433050
       60.57575       95.81000328        1.86142505
       60.67544       92.56977331        1.57183540
       60.77514       88.44737737        1.46055059
       60.87483       75.60855099        1.32369006
       60.97452       70.76010789        1.34888591
       61.07422       65.51416376        1.45782738
       61.17391       64.08228528        1.24888952
       61.27360       66.21796507        1.31471024
       61.37330       66.87086859        1.37020576
       61.47299       64.60279684        1.40584415
       61.57268       68.94201246        1.65176464
       61.67238       69.57778939        1.35244815
       61.77207       68.69479680        1.30875964
       61.87176       71.92912054        1.32444485
       61.97146       70.61289790        1.36235470
       62.07115       67.92734867        1.51319003
       62.17084       68.96903843        1.33591771
       62.27054       65.45208256        1.35679415
       62.37023       63.74789447        1.39227362
       62.46992       66.34881647        1.46920906
       62.56962       70.73874674        1.70412063
       62.66931       67.14771930        1.33735678
       62.76900       74.41410185        1.37254322
       62.86870       79.22238111        1.38547116
       62.96839       88.35434181        1.51022339
       63.06808       96.27770050        1.75478464
       63.16778      102.09609496        1.60429292
       63.26747      108.69075243        1.71323043
       63.36716      116.92655544        1.84449754
       63.46686      122.68083153        1.94628952
       63.56655      130.36858309        2.13194658
       63.66624      139.54838264        1.87522485
       63.76594      154.36912911        1.91660479
       63.86563      165.49243889        1.97885655
       63.96532      173.55030997        2.12090509
       64.06502      173.17034712        2.26954112
       64.16471      172.96216470        2.09803908
       64.26440      160.59057442        2.10383973
       64.36410      148.76125124        2.06524673
       64.46379      130.65043674        2.04592564
       64.56349      117.94799646        1.97794671
       64.66318      101.74873116        1.60730629
       64.76287       83.44170587        1.43690165
       64.86257       70.43669200        1.31772292
       64.96226       61.64011626        1.29089142
       65.06195       60.12697055        1.37858927
       65.16165       53.44070216        1.17215688
       65.26134       53.34015033        1.19846989
       65.36103       53.32318534        1.25037913
       65.46073       53.76229805        1.29678797
       65.56042       54.47534954        1.36340211
       65.66011       55.98744666        1.20527981
       65.75981       58.80148354        1.22296194
       65.85950       61.25177628        1.24031859
       65.95919       61.04957492        1.29618753
       66.05889       66.37037073        1.39815672
       66.15858       72.22527168        1.38717973
       66.25827       79.58282477        1.50618330
       66.35797       87.52534829        1.64575322
       66.45766      100.16847978        1.87126226
       66.55735      113.20067979        1.98931151
       66.65705      124.80612659        1.85323036
       66.75674      141.18986056        1.92148072
       66.85643      154.72690520        1.98918098
       66.95613      164.06910254        2.13018446
       67.05582      166.99101414        2.16527502
       67.15551      166.13277603        2.05514394
       67.25521      159.62204512        2.11413153
       67.35490      150.57513237        2.16132024
       67.45459      134.67190432        2.15495648
       67.55429      120.82904457        1.95522805
       67.65398      104.83084102        1.63195526
       67.75367       87.23193247        1.47588512
       67.85337       75.47268409        1.38928486
       67.95306       77.84879805        1.50896940
       68.05275       76.74310828        1.41859146
       68.15245       80.71276301        1.44242840
       68.25214       90.38300984        1.62050904
       68.35184       97.96501810        1.75856802
       68.45153      102.93537827        1.98460197
       68.55122      109.34114694        1.76228706
       68.65092      119.55830269        1.71804954
       68.75061      125.05167930        1.77539607
       68.85030      128.74759914        1.83629627
       68.95000      129.61098238        2.08896957
       69.04969      121.49889952        1.70766911
       69.14938      114.88176849        1.70728310
       69.24908       99.79867387        1.69870743
       69.34877       92.91918061        1.69510493
       69.44846       84.67449582        1.87659857
       69.54816       74.26854469        1.36992926
       69.64785       66.89319401        1.28161423
       69.74754       58.89586121        1.21438892
       69.84724       55.65171161        1.21115194
       69.94693       51.02622415        1.30862971
       70.04662       51.48960910        1.08104285
       70.14632       48.02087123        1.08548033
       70.24601       48.33163000        1.16602673
       70.34570       47.60523423        1.22454150
       70.44540       46.59604029        1.42737348
       70.54509       47.18257781        1.12428683
       70.64478       51.50018684        1.17310991
       70.74448       50.74139753        1.18286059
       70.84417       51.62082392        1.23806441
       70.94386       51.72104741        1.36037106
       71.04356       51.13461629        1.11928024
       71.14325       50.66539903        1.15776224
       71.24294       53.37014654        1.25036419
       71.34264       54.66270860        1.34183587
       71.44233       50.83357549        1.44375245
       71.54202       55.73865058        1.23101073
       71.64172       56.99465365        1.21093205
       71.74141       53.55640227        1.15239810
       71.84110       51.18806225        1.16614167
       71.94080       54.28095439        1.30870028
       72.04049       52.84302917        1.09286013
       72.14019       50.42549263        1.11220969
       72.23988       51.98570266        1.18164847
       72.33957       54.82765360        1.35564283
       72.43927       54.23640387        1.48419231
       72.53896       51.94964491        1.16455069
       72.63865       51.34022177        1.13157476
       72.73835       52.85457437        1.12295073
       72.83804       56.85696853        1.23004582
       72.93773       59.93445445        1.34161869
       73.03743       60.21943324        1.16731553
       73.13712       64.11600601        1.27039962
       73.23681       64.30376980        1.33663115
       73.33651       64.50361421        1.47305938
       73.43620       66.78167024        1.62359258
       73.53589       64.46471487        1.28670907
       73.63559       63.19833240        1.25394625
       73.73528       65.72244201        1.27304516
       73.83497       67.97008062        1.37263023
       73.93467       64.79857688        1.41110217
       74.03436       66.47946843        1.26498966
       74.13405       61.80848013        1.27138866
       74.23375       61.67560174        1.32290335
       74.33344       64.31287491        1.48728393
       74.43313       64.78266393        1.54894922
       74.53283       65.82532892        1.32664486
       74.63252       67.51887247        1.33394284
       74.73221       70.13425400        1.35300284
       74.83191       72.15229908        1.45584996
       74.93160       79.55450061        1.54630891
       75.03129       81.32402456        1.38996749
       75.13099       83.74764367        1.46109143
       75.23068       91.16351548        1.59040068
       75.33037       95.01914420        1.78490225
       75.43007      101.30255380        1.86985970
       75.52976      111.67156626        1.70570519
       75.62945      118.45995925        1.75549614
       75.72915      131.83341542        1.84530110
       75.82884      141.08658119        2.05583730
       75.92854      140.29686506        1.92434967
       76.02823      140.97014211        1.80905225
       76.12792      148.96231737        1.94416333
       76.22762      153.72458411        2.08404624
       76.32731      152.41284519        2.34351118
       76.42700      150.32403117        2.19648728
       76.52670      146.44442571        1.99979988
       76.62639      136.78509754        1.90771744
       76.72608      131.09939674        1.83639049
       76.82578      121.99546149        2.04065314
       76.92547      118.08124325        1.60789492
       77.02516      119.22237457        1.67461835
       77.12486      120.09593517        1.76563044
       77.22455      125.95167136        1.92564273
       77.32424      131.14234560        2.41433876
       77.42394      133.41466067        1.94452128
       77.52363      132.00796901        1.86898541
       77.62332      139.47662264        1.91278374
       77.72302      148.92074744        1.98154219
       77.82271      145.00442010        2.29272956
       77.92240      153.42212995        1.80638938
       78.02210      147.28639941        1.90938078
       78.12179      146.80721179        2.03599001
       78.22148      141.44325415        2.11294848
       78.32118      138.20393938        2.42333165
       78.42087      130.37572635        1.85197399
       78.52056      122.53492099        1.85367141
       78.62026      112.66055456        1.76295423
       78.71995      106.95415977        1.72323974
       78.81964      100.21106916        1.86282344
       78.91934       88.40106651        1.35522032
       79.01903       80.05196011        1.41355325
       79.11872       75.51469862        1.42862988
       79.21842       69.67863413        1.46367985
       79.31811       68.17843054        1.63080372
       79.41780       64.80444178        1.28961789
       79.51750       63.51532405        1.29723530
       79.61719       64.71615312        1.31334963
       79.71689       65.96853109        1.37675891
       79.81658       66.13401377        1.46126513
       79.91627       67.66276708        1.25294473
       80.01597       62.34473996        1.23596800
       80.11566       64.11856867        1.31036862
       80.21535       63.81815273        1.39742186
       80.31505       64.36392419        1.66831882
       80.41474       65.15183784        1.28982055
       80.51443       69.37886143        1.32537073
       80.61413       70.31716420        1.37859034
       80.71382       76.36017063        1.48641381
       80.81351       83.45011381        1.74646653
       80.91321       89.71545050        1.33557872
       81.01290      103.87374666        1.55196365
       81.11259      120.10160121        1.80188043
       81.21229      140.54297702        2.10935827
       81.31198      153.60974448        2.46052111
       81.41167      170.12620105        2.02800414
       81.51137      192.82339410        2.22210325
       81.61106      215.81366390        2.45594456
       81.71075      228.96976005        2.61873237
       81.81045      236.89941707        2.82218263
       81.91014      256.56802978        2.25923665
       82.00983      274.41532405        2.49826376
       82.10953      291.42138268        2.88125061
       82.20922      295.28929884        3.22559631
       82.30891      298.60147118        3.40131637
       82.40861      295.39356609        2.75066467
       82.50830      293.84715580        2.73621635
       82.60799      297.83595766        2.96783799
       82.70769      293.75039942        3.20713262
       82.80738      291.63991634        3.05306855
       82.90707      281.88412303        2.43669049
       83.00677      276.08283758        2.56929598
       83.10646      262.71661539        2.94820969
       83.20615      256.52052216        3.24260228
       83.30585      242.85628375        2.98812874
       83.40554      223.41494309        2.38188252
       83.50524      204.90969309        2.22511648
       83.60493      183.14058560        2.31642667
       83.70462      167.49045729        2.49723577
       83.80432      156.09579032        2.10650916
       83.90401      127.79912439        1.59779930
       84.00370      104.65681079        1.50727886
       84.10340       89.59165138        1.66591969
       84.20309       83.51068723        1.95242051
       84.30278       76.21249696        1.51661335
       84.40248       71.03119727        1.29205171
       84.50217       67.40473866        1.23465163
       84.60186       68.16409065        1.40397456
       84.70156       64.80803886        1.79121582
       84.80125       64.15454090        1.24074441
       84.90094       66.11591216        1.13157080
       85.00064       63.60947920        1.14344265
       85.10033       63.39858701        1.35098088
       85.20002       67.02168640        2.38266079
       85.29972       67.57209114        1.26204323
       85.39941       66.11324199        1.27268052
       85.49910       67.04829142        1.24641110
       85.59880       69.84075626        1.43057362
       85.69849       68.45287496        2.54260369
       85.79818       66.13444773        1.17817595
       85.89788       63.66320298        1.12823641
       85.99757       65.74863540        1.17818644
       86.09726       64.58816279        1.34068618
       86.19696       64.19053452        2.56701696
       86.29665       60.67030216        1.18085901
       86.39634       60.33432262        1.19800758
       86.49604       59.60623437        1.17271900
       86.59573       59.73060273        1.25082460
       86.69542       58.74835390        2.59353869
       86.79512       55.91759297        1.05023899
       86.89481       55.86750706        1.03497369
       86.99451       53.23911068        1.04715790
       87.09420       55.25986257        1.18990787
       87.19389       54.12396593        2.78939839
       87.29359       54.68119882        1.13629490
       87.39328       52.19380874        1.12504987
       87.49297       48.84184774        1.05638993
       87.59267       49.97773021        1.08966008
       87.69236       55.40417238        3.43369102
       87.79205       51.83364292        1.03446608
       87.89175       48.81402432        0.99569397
       87.99144       49.89469192        1.04898866
       88.09113       50.74243842        1.12441456
       88.19083       44.16892092        5.55004217
       88.29052       49.61012028        1.11875938
       88.39021       46.81168063        1.09388339
       88.48991       48.49330077        1.06857194
       88.58960       49.73836504        1.04806583
       88.68929       56.24248493        8.63554059
       88.78899       47.18741631        0.98525754
       88.88868       49.68089639        0.98896127
       88.98837       49.14323790        1.02301073
       89.08807       50.66844987        1.06403698
       89.18776       37.77811855        7.47224879
       89.28745       49.73972763        1.07108429
       89.38715       53.33907551        1.12069609
       89.48684       54.44265059        1.10804691
       89.58653       56.05649060        1.10156856
       89.68623       46.05824199        8.09186568
       89.78592       60.75969987        1.11455117
       89.88561       60.95776875        1.09445551
       89.98531       62.72628185        1.13847582
       90.08500       69.40636528        1.24232039
       90.18469       88.67773190       11.71944342
       90.28439       76.36218175        1.33115269
       90.38408       80.08400980        1.38623958
       90.48377       84.53677552        1.39769712
       90.58347       88.48575545        1.40765192
       90.68316      102.69789624       11.81856577
       90.78286       96.29266013        1.40600261
       90.88255       94.21879942        1.35317115
       90.98224       96.47045702        1.41677063
       91.08194       97.15352813        1.46845823
       91.18163      109.01726651       12.41788526
       91.28132      102.03707388        1.54971919
       91.38102       96.30759126        1.54522657
       91.48071       96.37221379        1.50781970
       91.58040       90.49948067        1.41283383
       91.68010       84.48739257       10.32524369
       91.77979       87.59456386        1.33419294
       91.87948       81.58900910        1.26749655
       91.97918       79.28479189        1.29735644
       92.07887       76.63746905        1.32855914
       92.17856       82.76112349       10.49964035
       92.27826       74.43130275        1.35213355
       92.37795       75.54883441        1.39461709
       92.47764       75.98140287        1.32771564
       92.57734       76.89894488        1.29581614
       92.67703       82.89676493        8.73518964
       92.77672       79.87484067        1.27297288
       92.87642       81.11436599        1.25836944
       92.97611       85.11179854        1.34616515
       93.07580       88.43204078        1.56626504
       93.17550       89.43763120        2.96199873
       93.27519       92.74004805        1.47863131
       93.37488       94.05071062        1.44752177
       93.47458      100.88308376        1.51602483
       93.57427       96.81757952        1.71678868
       93.67396      101.23905438        2.37284796
       93.77366       99.57344426        1.45771008
       93.87335      100.15578016        1.39649243
       93.97304       95.70027320        1.42236383
       94.07274       90.74599944        1.79790443
       94.17243       93.47011108        2.08220773
       94.27212       89.33639972        1.51596039
       94.37182       90.61674739        1.48806978
       94.47151       89.83543017        1.41889456
       94.57121       85.40079947        1.82551758
       94.67090       85.49518269        1.84768582
       94.77059       84.42967946        1.42730736
       94.87029       77.65993709        1.24448988
       94.96998       72.93282204        1.22109984
       95.06967       67.30275526        1.35197823
       95.16937       67.83891697        1.85812178
       95.26906       64.43825736        1.39883994
       95.36875       63.23557990        1.25735213
       95.46845       61.58073845        1.19238669
       95.56814       59.31355781        1.34647061
       95.66783       58.51202546        1.50240068
       95.76753       57.74427243        1.23332620
       95.86722       53.51001199        1.00974324
       95.96691       53.80495196        1.05025199
       96.06661       55.97132667        1.37231727
       96.16630       51.90369395        1.40905500
       96.26599       51.39731448        1.25921268
       96.36569       50.02952080        1.11467629
       96.46538       51.58570111        1.09242387
       96.56507       48.79521108        1.31123169
       96.66477       47.99208636        1.26710710
       96.76446       47.44908525        1.12586475
       96.86415       48.05534305        0.98144890
       96.96385       46.71646511        0.99941520
       97.06354       50.32224662        1.40277704
       97.16323       48.39307602        1.31522625
       97.26293       47.40128872        1.22288432
       97.36262       48.88446774        1.15007026
       97.46231       49.32422226        1.06280920
       97.56201       51.45889021        1.38120467
       97.66170       51.24029799        1.23793287
       97.76139       52.02235139        1.13322847
       97.86109       53.23551850        1.03664450
       97.96078       56.51002721        1.09150736
       98.06047       55.15206899        1.49768469
       98.16017       54.04381980        1.31789008
       98.25986       54.72410836        1.26674782
       98.35956       58.17082385        1.23316013
       98.45925       59.62136177        1.16534900
       98.55894       63.84789457        1.57334002
       98.65864       64.95404735        1.36164170
       98.75833       67.38528235        1.29597286
       98.85802       69.51558813        1.22914136
       98.95772       70.87954424        1.23291559
       99.05741       71.30314966        1.71672113
       99.15710       73.72375506        1.50135358
       99.25680       76.85062645        1.48521263
       99.35649       77.64475768        1.42187953
       99.45618       83.11411071        1.37120069
       99.55588       81.56686643        1.81494237
       99.65557       83.47348969        1.51480552
       99.75526       88.88070541        1.46531973
       99.85496       87.28436887        1.38199969
       99.95465       85.59803665        1.34165306
      100.05434       85.16085803        1.90637463
      100.15404       85.68455790        1.61068615
      100.25373       88.35974653        1.61620043
      100.35342       84.41727646        1.57334047
      100.45312       85.39876708        1.44404714
      100.55281       84.24457389        1.88368792
      100.65250       81.47553276        1.50898878
      100.75220       83.60881515        1.41603676
      100.85189       79.07837217        1.31564872
      100.95158       79.78170890        1.28621095
      101.05128       78.99366420        1.82462200
      101.15097       80.91392470        1.52633183
      101.25066       76.90012863        1.46994665
      101.35036       77.63422735        1.48978814
      101.45005       75.52628223        1.38169008
      101.54974       72.86540504        1.69019604
      101.64944       75.56307113        1.40441760
      101.74913       73.24358696        1.30269064
      101.84882       76.60695315        1.29700681
      101.94852       75.53189435        1.35655128
      102.04821       79.47965751        1.67631249
      102.14791       79.48793285        1.51082133
      102.24760       81.56695993        1.51763822
      102.34729       78.84898203        1.48590700
      102.44699       83.66600985        1.55749828
      102.54668       82.52417202        1.62305844
      102.64637       87.20908254        1.49041438
      102.74607       85.54846415        1.40576177
      102.84576       85.41140274        1.37795649
      102.94545       89.37785059        1.60567560
      103.04515       88.14593539        1.68798189
      103.14484       84.08034665        1.54007076
      103.24453       84.15662244        1.51700237
      103.34423       82.96154842        1.49393748
      103.44392       82.16828906        1.61047639
      103.54361       86.71210764        1.60742500
      103.64331       87.92202146        1.47342012
      103.74300       85.96483895        1.38961794
      103.84269       84.68629473        1.35530897
      103.94239       85.92370654        1.64062877
      104.04208       83.82957101        1.56762880
      104.14177       80.86311732        1.49777823
      104.24147       84.78869449        1.53313453
      104.34116       83.77611832        1.53335914
      104.44085       80.35397614        1.70537818
      104.54055       79.92630912        1.53989585
      104.64024       76.02631035        1.41154307
      104.73993       75.99773304        1.34672999
      104.83963       74.20266241        1.28199284
      104.93932       73.37751429        1.54544332
      105.03901       71.36471602        1.43597778
      105.13871       72.64388899        1.39507199
      105.23840       69.06854619        1.35935572
      105.33809       69.23541512        1.36903900
      105.43779       65.51811811        1.54937690
      105.53748       67.74245749        1.41296620
      105.63717       65.94078635        1.27772937
      105.73687       61.63938733        1.17548763
      105.83656       60.97918207        1.13924457
      105.93626       60.47535741        1.43770472
      106.03595       59.83009081        1.29603099
      106.13564       57.59524805        1.22892123
      106.23534       57.15328611        1.23925273
      106.33503       53.23264209        1.20790752
      106.43472       54.85803775        1.44974315
      106.53442       52.20800622        1.23004419
      106.63411       54.39408733        1.14061514
      106.73380       53.08495668        1.07390245
      106.83350       54.74963370        1.07439116
      106.93319       54.59625300        1.39079249
      107.03288       58.20953107        1.27293670
      107.13258       56.11396222        1.21302776
      107.23227       57.17419729        1.24225053
      107.33196       55.18724994        1.21703888
      107.43166       54.68253218        1.45559661
      107.53135       58.00526666        1.29363214
      107.63104       59.83090638        1.19640194
      107.73074       57.61244628        1.12627166
      107.83043       60.56630580        1.14030493
      107.93012       62.05357582        1.52696131
      108.02982       65.74895684        1.37588553
      108.12951       64.97532765        1.30065488
      108.22920       63.46296593        1.26475015
      108.32890       67.06882070        1.28795185
      108.42859       67.55963202        1.64060940
      108.52828       70.14453324        1.41814622
      108.62798       69.56816858        1.28059274
      108.72767       67.28085215        1.20868369
      108.82736       69.69887087        1.25742491
      108.92706       66.70689346        1.55779931
      109.02675       64.74122397        1.34249099
      109.12644       66.99460956        1.33300328
      109.22614       65.28109262        1.31680181
      109.32583       67.69327294        1.46129849
      109.42552       65.20219544        1.51263663
      109.52522       68.84333994        1.40246261
      109.62491       63.51305018        1.28105530
      109.72461       66.19026197        1.25042638
      109.82430       61.99002987        1.13022757
      109.92399       61.42730759        1.46279201
      110.02369       59.94075722        1.26531681
      110.12338       60.38412779        1.26173255
      110.22307       61.45896457        1.26343394
      110.32277       57.01909303        1.24250149
      110.42246       59.31231295        1.54094476
      110.52215       58.86619477        1.30018722
      110.62185       56.83957962        1.20400759
      110.72154       54.85599246        1.10343011
      110.82123       53.82281835        1.12875726
      110.92093       55.12500599        1.33239093
      111.02062       55.41880470        1.23422355
      111.12031       56.60556431        1.25673481
      111.22001       55.66067949        1.22281552
      111.31970       56.66137489        1.33901637
      111.41939       56.26435448        1.38068941
      111.51909       54.47867949        1.23268899
      111.61878       58.61502709        1.20466676
      111.71847       59.94355929        1.13348812
      111.81817       68.23268431        1.31292125
      111.91786       68.36738543        1.38305645
      112.01755       67.79603066        1.34479385
      112.11725       69.57238023        1.37270142
      112.21694       71.24835503        1.38298007
      112.31663       73.79633261        1.55112521
      112.41633       73.32510459        1.51890987
      112.51602       75.50746210        1.41949941
      112.61571       80.57469004        1.39904086
      112.71541       83.02858749        1.33848060
      112.81510       88.70588890        1.55157327
      112.91479       86.39341099        1.55964987
      113.01449       89.41904559        1.55396823
      113.11418       89.58057187        1.55018140
      113.21387       87.36692100        1.52382526
      113.31357       89.54566053        1.71342842
      113.41326       92.03105151        1.65093947
      113.51296       94.17271092        1.57104061
      113.61265       95.13643795        1.52368507
      113.71234       92.04904112        1.43141683
      113.81204       89.89687750        1.62047747
      113.91173       93.40292451        1.60079879
      114.01142       91.58280761        1.56905843
      114.11112       86.38458290        1.52279182
      114.21081       88.24528259        1.55033855
      114.31050       88.15987476        1.75728901
      114.41020       85.74389215        1.60129149
      114.50989       87.89302706        1.51785637
      114.60958       85.62082889        1.44962677
      114.70928       82.25462049        1.37021226
      114.80897       81.27003775        1.54469077
      114.90866       83.18370986        1.47410879
      115.00836       84.35116957        1.47753946
      115.10805       81.01019060        1.45569845
      115.20774       85.11944986        1.51496202
      115.30744       87.70162834        1.76580069
      115.40713       87.85243687        1.60077348
      115.50682       86.20901212        1.49696524
      115.60652       85.93542046        1.44042772
      115.70621       89.45947308        1.41262945
      115.80590       87.68295285        1.63140011
      115.90560       90.22033021        1.50002234
      116.00529       92.86166295        1.53894440
      116.10498       95.77951082        1.57942779
      116.20468       97.61761063        1.63122548
      116.30437       95.78404339        1.92604802
      116.40406      101.18982566        1.72452139
      116.50376      100.07644048        1.62060988
      116.60345      104.72094725        1.59161109
      116.70314      111.55757962        1.59329025
      116.80284      114.60724820        1.91904281
      116.90253      115.03571320        1.72952569
      117.00222      126.08583377        1.79706336
      117.10192      124.88029975        1.83629145
      117.20161      132.78341451        1.91708730
      117.30131      130.13594533        2.27083233
      117.40100      138.53293402        1.97030009
      117.50069      138.44432294        1.87070808
      117.60039      149.58876753        1.86166273
      117.70008      154.37360613        1.83246086
      117.79977      155.45578039        2.25343175
      117.89947      157.79402807        1.97381433
      117.99916      162.88989809        2.02970919
      118.09885      162.07292822        2.06251419
      118.19855      161.56602299        2.15683268
      118.29824      169.93128668        2.42560310
      118.39793      170.33323415        2.20489328
      118.49763      173.13117175        2.09783520
      118.59732      177.33832851        2.05017944
      118.69701      180.15661509        2.15287286
      118.79671      182.05989474        2.33700626
      118.89640      180.35410081        2.16855718
      118.99609      175.00236383        2.13345603
      119.09579      180.26174135        2.19091801
      119.19548      177.22091442        2.37340220
      119.29517      182.37699406        2.50184865
      119.39487      171.76865310        2.23114514
      119.49456      171.19473936        2.09899791
      119.59425      166.21652689        2.00825220
      119.69395      160.91516310        2.08428060
      119.79364      160.59109158        2.10427918
      119.89333      155.26097165        2.00210618
      119.99303      151.82033756        1.93275538
      120.09272      146.64446410        1.94246391
      120.19241      143.84343567        2.16220297
      120.29211      140.11542172        2.11196531
      120.39180      134.87513453        1.97650609
      120.49149      133.56683394        1.82922883
      120.59119      128.11296309        1.73850873
      120.69088      121.88055115        1.82502470
      120.79057      122.79720805        1.79260678
      120.89027      122.72772339        1.75941969
      120.98996      117.95705350        1.71134210
      121.08966      121.02059433        1.74658700
      121.18935      116.32774645        1.96251743
      121.28904      116.20670896        1.91176378
      121.38874      113.96778024        1.79020630
      121.48843      116.91304958        1.71275128
      121.58812      115.05872467        1.62042120
      121.68782      117.69259941        1.81575018
      121.78751      120.01684425        1.74737847
      121.88720      112.14323869        1.66703223
      121.98690      116.19610307        1.70984552
      122.08659      113.26116225        1.72174210
      122.18628      108.64795025        1.95590678
      122.28598      109.15076017        1.84359788
      122.38567      109.67238813        1.76992329
      122.48536      109.36786423        1.67188558
      122.58506      109.12429068        1.58167405
      122.68475      109.79986122        1.79790418
      122.78444      105.35051899        1.65801062
      122.88414      108.40164719        1.66775072
      122.98383      105.03609804        1.67509666
      123.08352      105.62681195        1.66547114
      123.18322      100.56958496        1.89505869
      123.28291      100.54992027        1.72214956
      123.38260      102.87923882        1.68178684
      123.48230      100.23289106        1.59979541
      123.58199       98.13692431        1.47946037
      123.68168       97.44139077        1.68218341
      123.78138       94.94702626        1.49799204
      123.88107       94.13305630        1.45702911
      123.98076       89.37743023        1.44576901
      124.08046       88.47400034        1.42324263
      124.18015       87.56153307        1.60253362
      124.27984       87.65617855        1.43654589
      124.37954       84.55347072        1.33121809
      124.47923       82.48369736        1.28350738
      124.57893       77.07923309        1.32163706
