        5.04651       59.94435265        2.64026452
        5.14621       58.11101869        2.50518530
        5.24590       56.58519908        2.43649594
        5.34559       58.83434606        2.27882752
        5.44529       54.76129886        2.39146028
        5.54498       52.44473271        1.96847390
        5.64467       54.42046822        1.98782201
        5.74437       50.07316349        1.72095633
        5.84406       55.65030728        1.83639387
        5.94375       52.39159680        1.77922351
        6.04345       51.15891768        1.70831548
        6.14314       54.37310101        1.61272467
        6.24283       52.79997727        1.64159383
        6.34253       53.56008539        1.57701422
        6.44222       52.12825481        1.63811035
        6.54191       51.02346992        1.53526524
        6.64161       50.86714296        1.45217805
        6.74130       50.64304426        1.45481689
        6.84099       53.74041400        1.48795752
        6.94069       50.93838198        1.47031562
        7.04038       51.84633520        1.36929370
        7.14007       50.00793568        1.34192285
        7.23977       49.87837872        1.31674604
        7.33946       50.83589019        1.34971854
        7.43915       52.90570366        1.35905368
        7.53885       48.78273566        1.28075931
        7.63854       51.39785099        1.25661937
        7.73823       48.35615639        1.26548886
        7.83793       50.61573728        1.25301357
        7.93762       49.16608771        1.28815431
        8.03732       53.18878379        1.20175235
        8.13701       49.37305290        1.15246228
        8.23670       51.75840260        1.19672390
        8.33640       49.61603882        1.17192831
        8.43609       48.55734263        1.21201525
        8.53578       51.06066596        1.15775806
        8.63548       49.68887804        1.12891856
        8.73517       49.81811260        1.10884623
        8.83486       50.90477874        1.12364708
        8.93456       50.56857803        1.11416515
        9.03425       50.54630065        1.08130002
        9.13394       48.38148657        1.05980234
        9.23364       51.10201674        1.10520094
        9.33333       50.17959204        1.11744241
        9.43302       52.06348276        1.13872431
        9.53272       51.31030719        1.09223548
        9.63241       52.06148261        1.13132895
        9.73210       50.78577854        1.11509220
        9.83180       52.12471279        1.17719062
        9.93149       51.18804166        1.15817719
       10.03118       52.13128403        1.12464568
       10.13088       52.41865728        1.10072940
       10.23057       51.08149576        1.13783718
       10.33026       52.57432931        1.19327230
       10.42996       53.34056157        1.18550016
       10.52965       53.92963856        1.15444738
       10.62934       51.97744461        1.13600475
       10.72904       51.94686875        1.15246515
       10.82873       51.83457107        1.14541307
       10.92842       50.63192961        1.15097389
       11.02812       54.09330709        1.13354595
       11.12781       52.58769750        1.15768830
       11.22750       54.03360153        1.18524744
       11.32720       52.73232041        1.20232734
       11.42689       56.39522338        1.20040041
       11.52658       54.41286814        1.16498018
       11.62628       53.36076981        1.16613695
       11.72597       57.72313213        1.23881914
       11.82567       59.16239019        1.28910954
       11.92536       59.70231122        1.21188861
       12.02505       61.24506241        1.23322865
       12.12475       67.33060949        1.29214757
       12.22444       70.94163149        1.40658532
       12.32413       78.83425200        1.50571821
       12.42383       83.58434952        1.47171919
       12.52352       96.82848542        1.57473824
       12.62321      109.56678138        1.72303224
       12.72291      127.95043741        1.81244418
       12.82260      146.63753023        2.10968931
       12.92229      158.09550358        1.98946404
       13.02199      183.26139669        2.12570693
       13.12168      211.54362541        2.32433238
       13.22137      248.32128145        2.60143282
       13.32107      277.29211909        2.83833473
       13.42076      312.67334857        2.90278063
       13.52045      338.66860196        3.05845941
       13.62015      344.25319638        2.98854366
       13.71984      337.63700474        3.08483063
       13.81953      318.13721504        3.04529306
       13.91923      285.33819656        2.70879541
       14.01892      222.34306027        2.32641892
       14.11861      173.72376412        2.14481933
       14.21831      134.83147932        1.89068413
       14.31800      111.14565443        1.80690730
       14.41769       86.98968211        1.53893584
       14.51739       73.59194799        1.38072709
       14.61708       64.00747775        1.29071153
       14.71677       56.51565142        1.23240530
       14.81647       51.03297833        1.22663025
       14.91616       52.35412005        1.14261072
       15.01585       49.47326499        1.13064527
       15.11555       51.78603943        1.17027509
       15.21524       49.17450713        1.17523406
       15.31493       47.95504305        1.18850645
       15.41463       47.04095912        1.13968726
       15.51432       48.58280944        1.12238832
       15.61402       48.22804242        1.14658593
       15.71371       48.12278905        1.13746269
       15.81340       47.88603522        1.18037010
       15.91310       49.98011378        1.17180986
       16.01279       48.38007827        1.10382856
       16.11248       47.12969193        1.11867809
       16.21218       48.45572114        1.16579496
       16.31187       47.20054148        1.15335908
       16.41156       49.63155351        1.16076456
       16.51126       50.88964997        1.19531133
       16.61095       50.77409092        1.15123922
       16.71064       49.45504546        1.17205419
       16.81034       52.37179590        1.20989602
       16.91003       54.47304420        1.19843184
       17.00972       55.16212569        1.15776979
       17.10942       57.69135868        1.25153826
       17.20911       61.27380654        1.30134998
       17.30880       66.89673742        1.37180290
       17.40850       67.52529905        1.37790834
       17.50819       72.42481735        1.38585865
       17.60788       74.46349709        1.44895021
       17.70758       75.60616369        1.46609860
       17.80727       73.28931854        1.46116308
       17.90696       73.25602704        1.36584902
       18.00666       66.55714581        1.32445911
       18.10635       61.90085161        1.24220076
       18.20604       59.72484761        1.33847145
       18.30574       58.22103917        1.25943290
       18.40543       56.43204687        1.20918245
       18.50512       55.47670397        1.23670177
       18.60482       54.45327088        1.20598193
       18.70451       51.57200520        1.24013306
       18.80420       52.38976496        1.17425170
       18.90390       50.93102924        1.14537002
       19.00359       53.47462145        1.14304653
       19.10328       49.69710571        1.16567830
       19.20298       47.19594592        1.17121041
       19.30267       47.81282034        1.13208824
       19.40237       46.73282491        1.10652014
       19.50206       46.92628150        1.13669335
       19.60175       46.47061769        1.11845932
       19.70145       48.08224152        1.19303969
       19.80114       47.53706136        1.12507174
       19.90083       46.51899387        1.07530883
       20.00053       48.95574639        1.12278236
       20.10022       47.49411957        1.11405061
       20.19991       47.89704696        1.19610265
       20.29961       49.42965209        1.15136486
       20.39930       50.26931421        1.19621396
       20.49899       50.31165155        1.17592884
       20.59869       50.36095141        1.19801779
       20.69838       52.57208641        1.26927165
       20.79807       54.26219320        1.23001030
       20.89777       54.99863873        1.21034549
       20.99746       56.86503327        1.24302945
       21.09715       55.36191579        1.29181759
       21.19685       58.34724138        1.31941661
       21.29654       57.57565285        1.27851010
       21.39623       58.40997338        1.28784547
       21.49593       56.36628223        1.24694298
       21.59562       53.67351244        1.24597610
       21.69531       52.61737981        1.28311835
       21.79501       51.16707070        1.15744860
       21.89470       48.35470597        1.09976228
       21.99439       45.88050208        1.11657811
       22.09409       48.18338839        1.14718584
       22.19378       45.20954496        1.17998204
       22.29347       45.67897847        1.10467874
       22.39317       46.44870789        1.14283586
       22.49286       46.20357203        1.13889529
       22.59255       45.49851511        1.14343260
       22.69225       48.09969686        1.23902957
       22.79194       47.37943188        1.10437297
       22.89163       49.61588160        1.10812812
       22.99133       51.48279278        1.16016217
       23.09102       53.00042953        1.22257322
       23.19072       53.78742007        1.23455589
       23.29041       55.63971559        1.24008053
       23.39010       59.09346183        1.29153460
       23.48980       54.44326209        1.24397356
       23.58949       54.06903167        1.25629856
       23.68918       53.18140817        1.31014868
       23.78888       53.99555438        1.17654102
       23.88857       47.55461421        1.11833542
       23.98826       48.60032034        1.15586075
       24.08796       45.65506020        1.09834823
       24.18765       44.55793617        1.16261645
       24.28734       44.27629904        1.10340999
       24.38704       45.69236857        1.13970734
       24.48673       44.64131833        1.12245266
       24.58642       45.98887440        1.17702019
       24.68612       46.67713225        1.18425696
       24.78581       43.13831431        1.04935465
       24.88550       47.77246609        1.10401098
       24.98520       47.18668363        1.13778433
       25.08489       47.19448892        1.16059891
       25.18458       45.32548406        1.16120131
       25.28428       47.80644097        1.14951276
       25.38397       49.65713339        1.16593671
       25.48366       51.19014667        1.19094342
       25.58336       52.93025106        1.26231502
       25.68305       60.04882489        1.31898083
       25.78274       69.85242717        1.34302448
       25.88244       78.81178059        1.46281454
       25.98213      102.79946238        1.68528563
       26.08182      128.97889841        1.93831882
       26.18152      155.99950834        2.18441383
       26.28121      182.86655562        2.23824833
       26.38090      201.97787624        2.37304316
       26.48060      198.24910796        2.41548598
       26.58029      186.16956948        2.44134366
       26.67998      164.53933465        2.16688888
       26.77968      134.35191405        1.93371868
       26.87937      104.16422348        1.67736363
       26.97907       87.25712805        1.52206909
       27.07876       75.62701214        1.52543856
       27.17845       73.18186266        1.43397324
       27.27815       77.16670739        1.43818433
       27.37784       82.75976381        1.54768949
       27.47753       85.77767114        1.55252583
       27.57723       86.57806135        1.63396642
       27.67692       84.02607231        1.57108350
       27.77661       78.32839969        1.44758489
       27.87631       70.05015164        1.34592556
       27.97600       62.70238274        1.30185262
       28.07569       60.29972628        1.35115737
       28.17539       52.56139878        1.20736238
       28.27508       50.45860755        1.18341492
       28.37477       51.90654883        1.22890734
       28.47447       51.46888453        1.21413943
       28.57416       51.69508057        1.31552272
       28.67385       52.55791146        1.18015647
       28.77355       53.86822522        1.17326462
       28.87324       56.37204261        1.23228972
       28.97293       58.04079218        1.25338378
       29.07263       58.16421235        1.36770811
       29.17232       56.79281561        1.23329168
       29.27201       54.42287302        1.22949273
       29.37171       53.22389540        1.25073600
       29.47140       53.63022514        1.24103738
       29.57109       51.34751772        1.28758868
       29.67079       50.45566400        1.16195005
       29.77048       48.00667104        1.13593219
       29.87017       47.46273563        1.10728852
       29.96987       47.81799024        1.16537485
       30.06956       49.26000773        1.22035269
       30.16925       48.43516405        1.13934315
       30.26895       49.20514367        1.15278170
       30.36864       48.62011417        1.16461010
       30.46833       52.05175929        1.21736462
       30.56803       55.36640678        1.32640356
       30.66772       55.72630839        1.23832717
       30.76742       57.94896967        1.23758535
       30.86711       62.73251636        1.31351837
       30.96680       61.88302464        1.31208731
       31.06650       63.72154919        1.39617123
       31.16619       62.88348040        1.30404137
       31.26588       60.00519560        1.26607523
       31.36558       57.41126395        1.25451663
       31.46527       60.19740878        1.33677097
       31.56496       61.60312830        1.37406929
       31.66466       64.79711787        1.31803898
       31.76435       71.55043648        1.38387124
       31.86404       78.44974920        1.43027259
       31.96374       83.52167779        1.51020560
       32.06343       87.24216975        1.59743633
       32.16312       88.92961127        1.51579780
       32.26282       81.94224831        1.49027786
       32.36251       76.49499637        1.49730092
       32.46220       69.69435483        1.45455843
       32.56190       62.30966378        1.39942433
       32.66159       61.85085250        1.32406219
       32.76128       59.41136939        1.26847528
       32.86098       57.03958946        1.26146151
       32.96067       58.30156719        1.29137705
       33.06036       56.94211093        1.29945851
       33.16006       56.79387952        1.22217530
       33.25975       53.18614180        1.22098829
       33.35944       55.62225277        1.25551266
       33.45914       56.69915909        1.31587375
       33.55883       58.68486399        1.34194298
       33.65852       60.54593739        1.27110307
       33.75822       66.95459283        1.33461511
       33.85791       75.41705067        1.42253670
       33.95760       80.78137600        1.51587083
       34.05730       91.31634480        1.59640128
       34.15699      103.07820174        1.66951062
       34.25668      117.45752252        1.77634569
       34.35638      141.93606554        2.00391911
       34.45607      179.59784042        2.37538861
       34.55577      224.92988738        2.53451548
       34.65546      295.05066238        2.78626815
       34.75515      367.90491744        3.17256562
       34.85485      438.27702182        3.43939777
       34.95454      459.94762606        3.63458886
       35.05423      444.76919478        3.69571612
       35.15393      383.90629218        3.22143143
       35.25362      309.09680512        2.93346472
       35.35331      232.81172727        2.61004552
       35.45301      167.70602890        2.30974286
       35.55270      127.65349639        1.96142547
       35.65239       98.44908022        1.66302696
       35.75209       87.39882230        1.55536378
       35.85178       77.62043858        1.46348942
       35.95147       72.37646532        1.44628053
       36.05117       68.45490048        1.37746670
       36.15086       62.45052543        1.26482866
       36.25055       62.94507394        1.32672037
       36.35025       55.33711723        1.26799952
       36.44994       55.57249693        1.29611544
       36.54963       54.53575645        1.23251642
       36.64933       51.07041719        1.17477641
       36.74902       54.08917251        1.22176299
       36.84871       54.86815321        1.22168595
       36.94841       53.26693633        1.30168623
       37.04810       54.65646025        1.16269012
       37.14779       48.07568661        1.11255311
       37.24749       48.92162191        1.15355235
       37.34718       49.95148146        1.19540885
       37.44687       48.72833521        1.26823183
       37.54657       47.59041331        1.14416795
       37.64626       48.67574758        1.15274845
       37.74595       49.84070744        1.14827028
       37.84565       48.64788294        1.20029638
       37.94534       47.58807479        1.20935980
       38.04503       48.60160051        1.10466867
       38.14473       49.33244232        1.12387891
       38.24442       47.46527707        1.12247918
       38.34412       50.21376714        1.20715213
       38.44381       50.65482813        1.31102431
       38.54350       50.16687292        1.16299987
       38.64320       49.59902643        1.15287092
       38.74289       52.01512087        1.19615958
       38.84258       56.41652944        1.24894613
       38.94228       58.09441905        1.32939484
       39.04197       60.88325495        1.22727403
       39.14166       65.11532330        1.32047965
       39.24136       67.04342519        1.33634207
       39.34105       69.65214451        1.40970267
       39.44074       71.32597255        1.55610539
       39.54044       72.12297209        1.39915709
       39.64013       70.31247865        1.37718504
       39.73982       64.38776974        1.32296343
       39.83952       64.00858575        1.31014743
       39.93921       59.64745062        1.34082187
       40.03890       56.70970220        1.19661597
       40.13860       57.47808779        1.20317406
       40.23829       55.61161778        1.22526663
       40.33798       55.34620499        1.26043122
       40.43768       56.02270614        1.32682107
       40.53737       57.98613078        1.25294106
       40.63706       57.41252501        1.27287916
       40.73676       59.18514575        1.29040778
       40.83645       60.90979093        1.32008148
       40.93614       63.47094589        1.37024589
       41.03584       69.55927121        1.35019563
       41.13553       75.23904884        1.40598691
       41.23522       89.10667938        1.56771628
       41.33492      105.49426441        1.78612510
       41.43461      125.30496761        2.00960143
       41.53430      155.04145674        2.09460311
       41.63400      182.48491204        2.32312679
       41.73369      197.24427199        2.36287968
       41.83338      207.78022600        2.49049462
       41.93308      209.17087074        2.47659922
       42.03277      216.49304994        2.30327329
       42.13247      230.59467774        2.49854794
       42.23216      270.86676658        2.71390980
       42.33185      337.46381115        3.25420618
       42.43155      414.66678242        3.55739964
       42.53124      508.74257551        3.82068961
       42.63093      569.03913451        4.05130145
       42.73063      598.81440981        4.17658933
       42.83032      585.10658488        4.20123292
       42.93001      540.03614174        3.88262853
       43.02971      427.52131633        3.25725674
       43.12940      323.17742115        2.88564236
       43.22909      231.14014357        2.56203087
       43.32879      167.14607826        2.29351364
       43.42848      126.59514701        1.95146789
       43.52817       96.31358943        1.62804393
       43.62787       78.75921689        1.46705261
       43.72756       68.51653006        1.40052102
       43.82725       63.78020303        1.41087250
       43.92695       60.95715377        1.25071091
       44.02664       58.22551404        1.21644020
       44.12633       57.81023928        1.25727186
       44.22603       57.41845050        1.30419130
       44.32572       57.40231656        1.37437417
       44.42541       55.48910021        1.29004695
       44.52511       55.67808175        1.25749241
       44.62480       57.72932125        1.29864078
       44.72449       57.36966051        1.25453997
       44.82419       64.56280228        1.49372878
       44.92388       65.27364688        1.25260189
       45.02357       71.81894755        1.32484637
       45.12327       84.77358906        1.48300189
       45.22296       96.65762581        1.62547245
       45.32265      118.43604137        1.99115680
       45.42235      137.46591512        1.95365312
       45.52204      168.32122623        2.14122317
       45.62174      205.17347330        2.40876163
       45.72143      245.05829637        2.63490578
       45.82112      269.12625625        3.02460408
       45.92082      283.09188722        2.63467904
       46.02051      282.37711247        2.68757764
       46.12020      257.31447026        2.57204876
       46.21990      222.45486812        2.51065148
       46.31959      184.82893847        2.46885103
       46.41928      150.05224779        2.05292775
       46.51898      116.34178211        1.81643817
       46.61867       96.15144952        1.64253722
       46.71836       75.22829144        1.48959490
       46.81806       67.71196125        1.46530820
       46.91775       62.29960369        1.22507209
       47.01744       57.76311848        1.20762577
       47.11714       59.36347063        1.25226990
       47.21683       66.34897148        1.36315691
       47.31652       67.26424292        1.49727823
       47.41622       77.97590409        1.51955539
       47.51591       92.53256246        1.65882987
       47.61560      107.73410391        1.77534240
       47.71530      131.76264972        1.98558252
       47.81499      152.70669334        2.19231435
       47.91468      174.57239576        2.05155117
       48.01438      196.60315723        2.17937181
       48.11407      202.55077578        2.29512540
       48.21376      200.45877291        2.38370491
       48.31346      183.94992399        2.36365527
       48.41315      163.36116008        2.07516125
       48.51284      138.25575036        1.97142373
       48.61254      113.77120904        1.78014506
       48.71223       91.31193499        1.62294724
       48.81192       77.61623039        1.49238861
       48.91162       63.63976920        1.21105085
       49.01131       56.45292804        1.18045465
       49.11100       54.71356524        1.20399418
       49.21070       54.45789944        1.26111153
       49.31039       49.33315576        1.23512317
       49.41009       48.91439313        1.16182982
       49.50978       51.84175131        1.22096693
       49.60947       50.86743884        1.21825067
       49.70917       47.17468228        1.21654153
       49.80886       48.01456696        1.19452486
       49.90855       49.81406660        1.10840887
       50.00825       49.61021590        1.12949398
       50.10794       49.41637094        1.15293248
       50.20763       52.41206866        1.24065219
       50.30733       56.10578199        1.34475689
       50.40702       52.86608061        1.22397797
       50.50671       54.84803951        1.25045895
       50.60641       53.97005355        1.24212875
       50.70610       55.09298912        1.29138378
       50.80579       57.18950917        1.29845885
       50.90549       57.15600305        1.17032622
       51.00518       55.54134144        1.16383909
       51.10487       57.76167116        1.22695775
       51.20457       55.17464340        1.27650401
       51.30426       57.52610985        1.29674885
       51.40395       56.02836816        1.22680168
       51.50365       58.57718325        1.26883640
       51.60334       58.67391450        1.29496712
       51.70303       57.21731031        1.35793581
       51.80273       59.36542453        1.26885631
       51.90242       60.32827009        1.19512054
       52.00211       62.89849477        1.22619524
       52.10181       62.50250941        1.26099873
       52.20150       61.79322562        1.38076711
       52.30119       63.96583320        1.35337565
       52.40089       61.06263308        1.30146782
       52.50058       64.28797614        1.36077991
       52.60027       60.74569485        1.34065882
       52.69997       61.52246143        1.47864625
       52.79966       58.43319727        1.21139878
       52.89935       61.32032864        1.19750464
       52.99905       67.14687261        1.27378386
       53.09874       77.85875017        1.41623470
       53.19844       92.50740670        1.76842823
       53.29813      106.06307436        1.68327954
       53.39782      122.14055799        1.86933260
       53.49752      141.40128180        2.02145626
       53.59721      153.00031575        2.10166266
       53.69690      159.80745219        2.35713294
       53.79660      171.17106093        2.04423115
       53.89629      164.37867506        1.98118779
       53.99598      151.57385081        1.94820643
       54.09568      133.82728396        1.91069247
       54.19537      122.46193039        1.99285874
       54.29506      107.03595701        1.71094068
       54.39476       97.90779719        1.64872014
       54.49445       89.59806842        1.57801098
       54.59414       87.44918817        1.58268578
       54.69384       83.91948613        1.65383051
       54.79353       81.43339478        1.39695878
       54.89322       79.09095863        1.37167747
       54.99292       74.58508248        1.37085241
       55.09261       73.03438060        1.41067249
       55.19230       67.36373803        1.45465723
       55.29200       66.06680265        1.34079345
       55.39169       59.25195245        1.30988974
       55.49138       58.55469241        1.29732137
       55.59108       57.56978413        1.32758659
       55.69077       54.39326681        1.32419563
       55.79046       55.51602386        1.16965287
       55.89016       52.25732055        1.13196420
       55.98985       55.46340290        1.17377927
       56.08954       59.21540282        1.25296067
       56.18924       62.67382866        1.39127645
       56.28893       70.85192613        1.35418678
       56.38862       77.27278558        1.46305065
       56.48832       90.38039349        1.61004646
       56.58801       97.65004530        1.72216677
       56.68770      108.30602551        1.87245849
       56.78740      111.80447010        1.62831608
       56.88709      117.14579899        1.68371395
       56.98679      108.19563937        1.61915177
       57.08648      100.87257415        1.65704295
       57.18617       92.41829713        1.64198276
       57.28587       81.42411475        1.43960379
       57.38556       70.77933765        1.42838785
       57.48525       66.78534413        1.41404641
       57.58495       58.99197729        1.35911814
       57.68464       54.37561422        1.31604799
       57.78433       53.82824375        1.14545641
       57.88403       51.54267738        1.13385065
       57.98372       52.24858662        1.15979582
       58.08341       52.49003028        1.25691326
       58.18311       52.78860989        1.28940508
       58.28280       52.80743608        1.21469376
       58.38249       51.20925733        1.24981642
       58.48219       53.67022005        1.30723732
       58.58188       51.62488051        1.29601438
       58.68157       51.79439575        1.27207478
       58.78127       51.07989895        1.10495802
       58.88096       54.69705946        1.12668480
       58.98065       55.21037480        1.17508178
       59.08035       58.19496736        1.28745137
       59.18004       57.45142969        1.29759077
       59.27973       60.03914305        1.25163297
       59.37943       63.27861075        1.32744957
       59.47912       66.90068437        1.42101530
       59.57881       72.87881686        1.55400930
       59.67851       76.90139170        1.48841617
       59.77820       81.85479379        1.41181538
       59.87789       94.21372124        1.50980244
       59.97759      102.55382078        1.64814339
       60.07728      105.66684458        1.81178224
       60.17697      104.60896711        1.71718022
       60.27667      108.41379149        1.69980722
       60.37636      109.42786702        1.74092648
       60.47605      103.22689765        1.76362946
       60.57575       97.51155272        1.87826535
       60.67544       95.08563146        1.59342322
       60.77514       85.99826124        1.44027174
       60.87483       78.17582852        1.34629189
       60.97452       72.80142904        1.36850082
       61.07422       69.50822907        1.50203699
       61.17391       68.38783978        1.29054531
       61.27360       67.43036476        1.32694028
       61.37330       66.65611973        1.36819184
       61.47299       67.03914909        1.43243848
       61.57268       68.70116391        1.64910194
       61.67238       69.50448849        1.35192800
       61.77207       70.11721074        1.32249785
       61.87176       71.83277938        1.32374491
       61.97146       67.51634969        1.33219644
       62.07115       67.84589292        1.51249737
       62.17084       68.15836338        1.32819780
       62.27054       67.67324561        1.37993188
       62.37023       60.56048805        1.35706481
       62.46992       62.10077105        1.42139085
       62.56962       63.28145678        1.61160585
       62.66931       64.86893699        1.31455318
       62.76900       66.27624973        1.29513765
       62.86870       71.08339761        1.31218840
       62.96839       75.75910778        1.39802586
       63.06808       81.61990853        1.61509523
       63.16778       93.92054911        1.53850005
       63.26747      103.98514663        1.67569964
       63.36716      116.96204053        1.84504620
       63.46686      131.82658678        2.01847100
       63.56655      141.88778975        2.22535994
       63.66624      158.76500834        2.00181083
       63.76594      173.54889623        2.03384118
       63.86563      187.77206132        2.10979959
       63.96532      194.25352098        2.24579114
       64.06502      188.09538748        2.36689608
       64.16471      181.28726458        2.14887145
       64.26440      156.80318998        2.07890717
       64.36410      140.85164312        2.00932570
       64.46379      123.21302471        1.98660803
       64.56349      106.13511714        1.87577864
       64.66318       87.63271344        1.49112729
       64.76287       75.18024485        1.36371631
       64.86257       66.42180280        1.27962151
       64.96226       60.49325326        1.27895982
       65.06195       57.50133733        1.34822394
       65.16165       53.96473684        1.17808257
       65.26134       52.86044975        1.19322163
       65.36103       54.69022653        1.26655038
       65.46073       53.40749260        1.29267320
       65.56042       53.88793469        1.35620001
       65.66011       54.62161405        1.19060287
       65.75981       55.85466689        1.19197308
       65.85950       59.04418837        1.21784413
       65.95919       60.87119240        1.29447204
       66.05889       61.95447522        1.35082944
       66.15858       67.65255407        1.34252781
       66.25827       78.41588884        1.49525501
       66.35797       91.71275775        1.68515339
       66.45766      104.80190817        1.91464020
       66.55735      115.81678340        2.01264249
       66.65705      129.72709189        1.89001131
       66.75674      147.94129344        1.96763371
       66.85643      159.61548070        2.02099719
       66.95613      168.18897410        2.15738494
       67.05582      175.81608242        2.22275834
       67.15551      170.61228604        2.08329248
       67.25521      162.56333369        2.13404749
       67.35490      145.90457189        2.12749498
       67.45459      130.51555326        2.12143903
       67.55429      112.70273583        1.88806922
       67.65398       95.44157524        1.55686915
       67.75367       84.68549099        1.45426418
       67.85337       75.21263248        1.38707757
       67.95306       75.10752674        1.48223561
       68.05275       76.59869901        1.41745426
       68.15245       81.67743448        1.45128207
       68.25214       94.38522338        1.65647157
       68.35184      100.38868430        1.78059777
       68.45153      111.76452194        2.06890451
       68.55122      113.01786758        1.79216170
       68.65092      126.36614722        1.76696345
       68.75061      126.01598354        1.78254576
       68.85030      131.54504164        1.85658860
       68.95000      126.08798112        2.06042644
       69.04969      120.92901473        1.70387153
       69.14938      108.99054231        1.66282814
       69.24908       97.12990429        1.67592581
       69.34877       85.33621962        1.62426808
       69.44846       78.93048270        1.81172642
       69.54816       71.86130335        1.34762597
       69.64785       61.45465630        1.22835404
       69.74754       58.07081313        1.20599286
       69.84724       53.61409863        1.18885997
       69.94693       50.59182394        1.30321662
       70.04662       51.66282315        1.08302344
       70.14632       48.27776967        1.08854782
       70.24601       46.76164890        1.14703509
       70.34570       44.67353012        1.18628614
       70.44540       49.10120486        1.46558356
       70.54509       47.95100937        1.13360036
       70.64478       48.59757614        1.13962039
       70.74448       49.39816089        1.16721326
       70.84417       49.53851339        1.21292351
       70.94386       49.36862243        1.32915692
       71.04356       52.31166474        1.13230036
       71.14325       52.14268354        1.17475141
       71.24294       53.95457943        1.25739997
       71.34264       53.57794551        1.32859700
       71.44233       55.76031435        1.51258024
       71.54202       54.42095324        1.21649278
       71.64172       52.51053445        1.16230561
       71.74141       53.87441052        1.15599508
       71.84110       52.66013789        1.18302390
       71.94080       51.18515256        1.27087870
       72.04049       51.64232513        1.08048383
       72.14019       52.41505843        1.13418295
       72.23988       52.88158153        1.19199735
       72.33957       53.42254996        1.33828703
       72.43927       54.65454213        1.49014070
       72.53896       52.34380128        1.16914611
       72.63865       53.87806168        1.15947723
       72.73835       55.09324248        1.14674235
       72.83804       58.73415621        1.25045055
       72.93773       58.69513220        1.32780989
       73.03743       63.34011885        1.19748498
       73.13712       66.67398909        1.29579834
       73.23681       66.77882772        1.36242801
       73.33651       66.43383894        1.49525540
       73.43620       65.72339501        1.61085034
       73.53589       66.10881437        1.30327815
       73.63559       67.35793898        1.29493233
       73.73528       68.49737402        1.29995795
       73.83497       68.03159831        1.37345329
       73.93467       64.55685692        1.40866001
       74.03436       63.99358610        1.24118462
       74.13405       65.34226209        1.30758038
       74.23375       60.36001637        1.30884722
       74.33344       57.36912479        1.40456168
       74.43313       59.54668275        1.48497611
       74.53283       59.06601250        1.25656972
       74.63252       61.35355567        1.27149071
       74.73221       61.38334586        1.26557551
       74.83191       67.63643010        1.40953476
       74.93160       66.63398097        1.41474199
       75.03129       74.30197385        1.32846777
       75.13099       76.84084798        1.39940872
       75.23068       89.45049641        1.57552068
       75.33037      100.35151694        1.83491106
       75.43007      104.42140133        1.89890808
       75.52976      118.16268937        1.75523189
       75.62945      132.16408050        1.85541970
       75.72915      143.03198634        1.92310980
       75.82884      152.59718738        2.13922640
       75.92854      153.73460448        2.01563883
       76.02823      160.01344821        1.92893597
       76.12792      164.92440321        2.04711413
       76.22762      161.15795419        2.13470095
       76.32731      156.64122811        2.37649062
       76.42700      150.82974844        2.20053492
       76.52670      142.68450307        1.97398552
       76.62639      130.37794871        1.86235254
       76.72608      115.40522152        1.72226960
       76.82578      112.87937999        1.96258520
       76.92547      106.65436816        1.52772485
       77.02516      107.52088662        1.58989272
       77.12486      111.04866205        1.69752905
       77.22455      120.38421442        1.88250633
       77.32424      129.20465426        2.39661899
       77.42394      137.57988195        1.97521519
       77.52363      142.45134887        1.94249828
       77.62332      153.46106211        2.00765681
       77.72302      160.61279177        2.05899840
       77.82271      165.80809480        2.45382579
       77.92240      165.50344416        1.87722765
       78.02210      166.75906388        2.03336028
       78.12179      159.95224973        2.12647093
       78.22148      153.46023726        2.20212013
       78.32118      145.99342733        2.49172657
       78.42087      129.90107341        1.84883578
       78.52056      116.26009422        1.80544929
       78.62026      103.49917910        1.68945514
       78.71995       90.86094500        1.58764286
       78.81964       85.08575308        1.71583013
       78.91934       77.57065362        1.26919214
       79.01903       67.20113998        1.29473552
       79.11872       65.07979569        1.32596030
       79.21842       63.21645678        1.39404090
       79.31811       56.89829169        1.48942376
       79.41780       60.74497126        1.24857525
       79.51750       60.05159396        1.26139694
       79.61719       60.16207288        1.26627705
       79.71689       59.99059904        1.31281232
       79.81658       63.95781698        1.43712018
       79.91627       62.58665623        1.20498950
       80.01597       60.61206368        1.21877443
       80.11566       64.04741834        1.30982801
       80.21535       62.15579278        1.37922073
       80.31505       65.40364361        1.68204507
       80.41474       68.98811019        1.32762276
       80.51443       67.18588235        1.30434426
       80.61413       67.34673283        1.34921253
       80.71382       75.97006981        1.48280659
       80.81351       77.52163521        1.68318018
       80.91321       81.62664343        1.27377057
       81.01290       92.26083166        1.46225460
       81.11259      107.76550027        1.70634253
       81.21229      119.90873844        1.94724145
       81.31198      131.97724127        2.27929685
       81.41167      153.35646508        1.92460734
       81.51137      177.95857875        2.13393357
       81.61106      197.89902708        2.35067208
       81.71075      215.23440012        2.53812175
       81.81045      230.15532364        2.78146723
       81.91014      258.95426873        2.27023134
       82.00983      288.12231739        2.56148030
       82.10953      303.73094141        2.94314719
       82.20922      321.98241195        3.37182792
       82.30891      330.11128335        3.58068904
       82.40861      336.83255402        2.94190500
       82.50830      338.12925777        2.94007406
       82.60799      331.63744814        3.13583493
       82.70769      328.95911114        3.39851909
       82.80738      321.08520462        3.20721327
       82.90707      308.86336733        2.55338417
       83.00677      287.11202234        2.62149026
       83.10646      268.32608148        2.98052459
       83.20615      261.24136214        3.27330840
       83.30585      238.59934489        2.96180974
       83.40554      209.30948201        2.30466379
       83.50524      183.60618950        2.10501286
       83.60493      159.66173996        2.16138858
       83.70462      141.02967215        2.28970886
       83.80432      128.23434800        1.90769462
       83.90401      106.02055608        1.45440136
       84.00370       92.12507953        1.41374294
       84.10340       77.44672801        1.54845736
       84.20309       72.44303531        1.81800254
       84.30278       70.14518527        1.45489256
       84.40248       67.19611244        1.25670032
       84.50217       65.12870205        1.21370626
       84.60186       63.60256380        1.35616317
       84.70156       64.39835726        1.78577844
       84.80125       65.04819874        1.24957664
       84.90094       63.44536160        1.10853856
       85.00064       61.34054901        1.12293747
       85.10033       63.64442242        1.35380564
       85.20002       63.39417488        2.31732378
       85.29972       64.73538402        1.23532436
       85.39941       64.24508123        1.25467000
       85.49910       67.85530820        1.25410719
       85.59880       62.94807284        1.35801492
       85.69849       65.59617918        2.48909448
       85.79818       66.61350260        1.18262677
       85.89788       65.45092411        1.14420559
       85.99757       66.48279355        1.18494847
       86.09726       64.81747586        1.34326963
       86.19696       67.16928965        2.62655880
       86.29665       63.79985898        1.21124129
       86.39634       64.32674530        1.23736312
       86.49604       63.10225542        1.20694370
       86.59573       60.30189973        1.25699974
       86.69542       59.99684808        2.62144763
       86.79512       57.17614934        1.06219343
       86.89481       57.28697441        1.04824386
       86.99451       54.79884211        1.06259887
       87.09420       54.83900934        1.18552252
       87.19389       57.64455995        2.87946482
       87.29359       50.68511445        1.09399195
       87.39328       53.64108981        1.14076515
       87.49297       50.87224493        1.07835753
       87.59267       50.29063306        1.09323657
       87.69236       53.93606945        3.38820884
       87.79205       51.03930591        1.02662926
       87.89175       50.83745007        1.01634102
       87.99144       50.54443875        1.05597415
       88.09113       51.57177792        1.13376375
       88.19083       64.98374055        6.73785647
       88.29052       48.95516467        1.11148554
       88.39021       49.12172348        1.12080256
       88.48991       48.45263602        1.06827733
       88.58960       50.66653185        1.05798774
       88.68929       47.39400446        7.92586342
       88.78899       47.95596519        0.99341976
       88.88868       48.92200013        0.98149501
       88.98837       47.40803359        1.00487202
       89.08807       50.54999555        1.06294230
       89.18776       49.16022298        8.52855483
       89.28745       49.34950449        1.06701471
       89.38715       53.59344047        1.12353820
       89.48684       54.61123236        1.10992874
       89.58653       54.28570858        1.08411973
       89.68623       53.29469258        8.70784658
       89.78592       59.01048306        1.09848218
       89.88561       63.95107323        1.12128563
       89.98531       67.23858585        1.17907188
       90.08500       71.73445522        1.26327060
       90.18469       82.02763512       11.27044677
       90.28439       80.33135301        1.36569837
       90.38408       82.82848014        1.41013290
       90.48377       92.02583252        1.45888915
       90.58347       94.84926639        1.45792623
       90.68316       97.29590891       11.50301559
       90.78286       97.18597688        1.41275806
       90.88255       99.14736693        1.38855331
       90.98224      103.65419134        1.46915695
       91.08194      103.16514426        1.51374704
       91.18163      103.07329034       12.07383479
       91.28132      104.12926504        1.56586788
       91.38102       98.80902844        1.56552931
       91.48071       98.25021372        1.52276091
       91.58040       85.34212070        1.37193612
       91.68010       98.21644866       11.13958095
       91.77979       84.05541156        1.30698841
       91.87948       75.58266103        1.21986901
       91.97918       71.58890550        1.23262951
       92.07887       70.74560768        1.27638870
       92.17856       76.65573043       10.10422924
       92.27826       71.87053538        1.32874308
       92.37795       66.75690323        1.31074362
       92.47764       67.50939129        1.25131592
       92.57734       70.31333221        1.23898008
       92.67703       70.07691363        8.02893759
       92.77672       75.08637088        1.23419693
       92.87642       81.63792077        1.26263008
       92.97611       88.37292904        1.37206833
       93.07580       94.74281551        1.62178298
       93.17550       94.92072979        3.05247266
       93.27519       98.90216249        1.52751675
       93.37488       99.66816152        1.49063328
       93.47458      103.59130676        1.53660732
       93.57427      104.30496160        1.78266289
       93.67396      109.46743679        2.46846283
       93.77366      105.03579865        1.49766323
       93.87335      105.75568606        1.43549153
       93.97304       98.10266846        1.44043610
       94.07274       93.70268077        1.82741352
       94.17243       93.86535982        2.08693643
       94.27212       90.45523584        1.52570447
       94.37182       87.71291130        1.46409534
       94.47151       85.50819760        1.38428967
       94.57121       80.03226542        1.76713004
       94.67090       79.69615235        1.78381704
       94.77059       74.86143197        1.34374156
       94.87029       70.67968650        1.18712492
       94.96998       65.43381160        1.15648257
       95.06967       63.65141980        1.31481443
       95.16937       60.99409519        1.76172015
       95.26906       62.69756224        1.37993240
       95.36875       60.12297268        1.22606013
       95.46845       59.77032038        1.17482387
       95.56814       58.98326616        1.34289556
       95.66783       57.94134146        1.49524289
       95.76753       55.75542229        1.21199166
       95.86722       54.50235677        1.01924660
       95.96691       55.25640243        1.06453247
       96.06661       52.01822765        1.32297618
       96.16630       54.29257394        1.44144675
       96.26599       54.79373026        1.30049684
       96.36569       50.88239789        1.12433430
       96.46538       50.98005170        1.08612649
       96.56507       49.34996214        1.31888150
       96.66477       48.67076812        1.27625083
       96.76446       47.70981534        1.12912806
       96.86415       48.13795339        0.98243758
       96.96385       48.93586971        1.02310837
       97.06354       50.66742963        1.40780138
       97.16323       50.07608545        1.33817477
       97.26293       48.30821339        1.23474625
       97.36262       50.44420780        1.16850746
       97.46231       47.83463220        1.04673474
       97.56201       50.26369258        1.36521095
       97.66170       50.94767522        1.23455944
       97.76139       51.93989389        1.13249105
       97.86109       52.05755392        1.02521741
       97.96078       53.71613191        1.06423255
       98.06047       56.66706223        1.51841687
       98.16017       53.21436084        1.30788910
       98.25986       54.56342533        1.26506309
       98.35956       54.68773844        1.19569817
       98.45925       58.40076811        1.15347626
       98.55894       59.91733048        1.52415240
       98.65864       61.57578037        1.32579388
       98.75833       64.33544990        1.26635329
       98.85802       66.39829946        1.20130839
       98.95772       69.41709248        1.22024401
       99.05741       69.30485148        1.69262057
       99.15710       72.19844019        1.48587676
       99.25680       75.16468902        1.46895678
       99.35649       77.43125010        1.42011828
       99.45618       84.24140644        1.38072295
       99.55588       85.18257740        1.85523717
       99.65557       86.19490830        1.53967065
       99.75526       86.60250991        1.44651179
       99.85496       86.91228459        1.37923249
       99.95465       87.08470934        1.35352053
      100.05434       89.31113623        1.95284273
      100.15404       88.76319928        1.63978151
      100.25373       87.67432999        1.61011396
      100.35342       87.35300655        1.60086117
      100.45312       84.67427395        1.43808027
      100.55281       87.92711823        1.92494578
      100.65250       82.36904902        1.51750793
      100.75220       80.99304325        1.39378342
      100.85189       78.34965404        1.30972887
      100.95158       76.88123012        1.26266836
      101.05128       70.83782808        1.72761791
      101.15097       72.77570052        1.44733514
      101.25066       73.55929802        1.43770142
      101.35036       74.15051539        1.45601106
      101.45005       73.34251912        1.36166117
      101.54974       75.46583607        1.72049828
      101.64944       72.06966304        1.37159930
      101.74913       77.87336657        1.34364526
      101.84882       78.02078886        1.30917542
      101.94852       81.24711434        1.40742484
      102.04821       81.33951437        1.69616883
      102.14791       86.73185321        1.57879349
      102.24760       88.28085764        1.57946418
      102.34729       85.60537712        1.54885292
      102.44699       85.70178885        1.57667417
      102.54668       88.76982659        1.68397054
      102.64637       88.93479297        1.50539763
      102.74607       89.47202141        1.43804345
      102.84576       89.35616089        1.40981756
      102.94545       94.69174746        1.65326650
      103.04515       92.34152761        1.72819226
      103.14484       88.33640381        1.57903275
      103.24453       86.57633327        1.53901030
      103.34423       87.10543783        1.53123830
      103.44392       87.37450920        1.66125763
      103.54361       89.64015485        1.63474384
      103.64331       87.15172292        1.46712412
      103.74300       87.07938007        1.39885448
      103.84269       85.86121869        1.36493223
      103.94239       80.29945427        1.58594133
      104.04208       82.13178120        1.55180516
      104.14177       79.16145731        1.48206098
      104.24147       84.36704737        1.52951646
      104.34116       83.27268113        1.52893929
      104.44085       79.61679476        1.69773930
      104.54055       81.98112979        1.55990337
      104.64024       77.29660553        1.42355651
      104.73993       76.91262877        1.35505191
      104.83963       74.11758077        1.28143948
      104.93932       70.45329700        1.51439961
      105.03901       71.16252370        1.43413973
      105.13871       70.83386785        1.37769419
      105.23840       72.04723369        1.38870528
      105.33809       69.48906112        1.37175551
      105.43779       65.32915020        1.54735495
      105.53748       63.16557462        1.36437737
      105.63717       62.44856976        1.24346233
      105.73687       60.29589455        1.16272019
      105.83656       56.09685989        1.09265676
      105.93626       56.67866554        1.39185886
      106.03595       56.30504719        1.25729819
      106.13564       55.55899300        1.20709028
      106.23534       55.17956097        1.21775861
      106.33503       50.82671359        1.18036654
      106.43472       50.27145026        1.38779228
      106.53442       48.77192120        1.18890603
      106.63411       51.20882783        1.10675114
      106.73380       50.68852312        1.04944641
      106.83350       50.99488194        1.03690906
      106.93319       49.90411322        1.32965908
      107.03288       50.29716811        1.18310547
      107.13258       50.38298915        1.14935067
      107.23227       51.19854200        1.17546451
      107.33196       51.74446186        1.17849392
      107.43166       53.38066606        1.43830772
      107.53135       55.04442163        1.26023473
      107.63104       56.62798528        1.16397559
      107.73074       58.16821274        1.13187732
      107.83043       61.95354986        1.15351371
      107.93012       64.79316763        1.56068084
      108.02982       63.56577761        1.35294187
      108.12951       64.86127305        1.29969603
      108.22920       66.45162601        1.29451185
      108.32890       68.26073127        1.29958873
      108.42859       70.14521497        1.67210312
      108.52828       68.22725732        1.39873903
      108.62798       73.12637860        1.31328839
      108.72767       72.49374945        1.25504652
      108.82736       70.60569841        1.26580226
      108.92706       69.29973461        1.58816099
      109.02675       67.93080052        1.37551717
      109.12644       68.25484908        1.34573722
      109.22614       71.09109854        1.37463086
      109.32583       70.06018234        1.48696566
      109.42552       69.70904277        1.56451568
      109.52522       71.12138041        1.42579858
      109.62491       67.67739818        1.32277158
      109.72461       66.90570285        1.25737999
      109.82430       61.83863303        1.12900426
      109.92399       59.55544178        1.44044580
      110.02369       61.20116792        1.27879309
      110.12338       58.95052156        1.24678278
      110.22307       60.22407634        1.25080351
      110.32277       57.18728074        1.24452052
      110.42246       56.63882820        1.50589215
      110.52215       56.02200860        1.26844528
      110.62185       54.42232033        1.17819818
      110.72154       52.72318134        1.08184234
      110.82123       53.38700568        1.12432397
      110.92093       53.20607320        1.30909631
      111.02062       55.55895806        1.23596864
      111.12031       53.78800753        1.22511459
      111.22001       56.22970368        1.22925306
      111.31970       55.70629121        1.32783114
      111.41939       57.30835399        1.39369347
      111.51909       56.79904827        1.25895228
      111.61878       56.82277525        1.18620361
      111.71847       60.55600637        1.13945368
      111.81817       64.11380927        1.27267709
      111.91786       66.72017063        1.36641231
      112.01755       65.91499448        1.32611104
      112.11725       70.23839379        1.37948843
      112.21694       70.19283450        1.37284560
      112.31663       73.61484351        1.54943127
      112.41633       74.77057353        1.53410833
      112.51602       79.09319812        1.45320719
      112.61571       80.08654776        1.39497461
      112.71541       83.07610736        1.33905970
      112.81510       87.01269315        1.53682489
      112.91479       90.87719026        1.60009422
      113.01449       88.53853099        1.54647426
      113.11418       90.72291709        1.56032260
      113.21387       89.00706007        1.53837347
      113.31357       90.15720752        1.71955515
      113.41326       91.51464862        1.64650947
      113.51296       93.50637603        1.56566253
      113.61265       91.70859190        1.49601970
      113.71234       94.50460045        1.45071891
      113.81204       91.14700794        1.63201384
      113.91173       89.02042519        1.56277806
      114.01142       88.04284943        1.53846637
      114.11112       85.14022078        1.51193693
      114.21081       87.03904348        1.53986378
      114.31050       88.44433997        1.76039424
      114.41020       85.06708087        1.59515212
      114.50989       83.01574608        1.47510220
      114.60958       81.04184128        1.41030841
      114.70928       78.56662455        1.33916260
      114.80897       76.66308793        1.50024437
      114.90866       74.51446261        1.39495808
      115.00836       75.92350440        1.40157335
      115.10805       74.47844328        1.39566123
      115.20774       76.52329906        1.43620286
      115.30744       75.02519279        1.63271620
      115.40713       75.98475824        1.48832529
      115.50682       78.69641082        1.43008221
      115.60652       78.30812539        1.37484958
      115.70621       78.79495047        1.32545295
      115.80590       79.27701700        1.55099742
      115.90560       81.26076821        1.42335116
      116.00529       85.22432522        1.47411976
      116.10498       87.19042377        1.50670984
      116.20468       92.69667118        1.58953365
      116.30437       92.08485770        1.88851757
      116.40406       96.77402224        1.68645601
      116.50376       98.69339517        1.60952719
      116.60345      101.94821957        1.57047314
      116.70314      111.15336713        1.59060839
      116.80284      117.94698139        1.94731252
      116.90253      125.40918418        1.80674169
      117.00222      127.80949768        1.80967563
      117.10192      134.80851356        1.90882934
      117.20161      139.10879269        1.96293607
      117.30131      138.93417667        2.34740222
      117.40100      146.20853663        2.02498391
      117.50069      154.64871039        1.97856609
      117.60039      163.60452819        1.94816021
      117.70008      171.19278187        1.93111820
      117.79977      174.26743925        2.38779618
      117.89947      175.60694065        2.08384207
      117.99916      179.03382109        2.12942232
      118.09885      176.92668479        2.15638520
      118.19855      179.64053759        2.27604288
      118.29824      183.22505073        2.52022694
      118.39793      186.51427155        2.30888250
      118.49763      188.53697445        2.19067581
      118.59732      188.04414145        2.11224977
      118.69701      188.34960440        2.20222812
      118.79671      184.83681443        2.35532869
      118.89640      185.02588616        2.19713837
      118.99609      185.06718289        2.19503559
      119.09579      178.17333634        2.17834412
      119.19548      177.76074129        2.37740100
      119.29517      174.40625973        2.44623737
      119.39487      171.44422887        2.22933265
      119.49456      164.63858148        2.05823801
      119.59425      157.50036418        1.95457392
      119.69395      153.92516910        2.03830369
      119.79364      150.58461826        2.03724599
      119.89333      143.11950472        1.92169035
      119.99303      139.15244818        1.84981095
      120.09272      136.54229740        1.87397036
      120.19241      135.37639342        2.09728164
      120.29211      130.94261240        2.04130267
      120.39180      129.90606662        1.93969737
      120.49149      126.62462887        1.78088070
      120.59119      118.65440852        1.67278818
      120.69088      117.08941843        1.78875192
      120.79057      116.74070321        1.74772225
      120.89027      117.22903638        1.71947029
      120.98996      117.73610856        1.70997233
      121.08966      117.60557541        1.72181008
      121.18935      119.22352164        1.98728285
      121.28904      120.07184117        1.94384138
      121.38874      117.76034980        1.82025446
      121.48843      115.84901170        1.70512217
      121.58812      118.47203404        1.64471556
      121.68782      115.49441677        1.79883472
      121.78751      118.90386060        1.73944071
      121.88720      118.62909920        1.71519945
      121.98690      118.56936794        1.72761209
      122.08659      119.25546924        1.76734286
      122.18628      116.03592860        2.02212953
      122.28598      111.34788884        1.86247334
      122.38567      113.11858806        1.79799328
      122.48536      111.50459247        1.68850906
      122.58506      113.04258624        1.61027406
      122.68475      111.12571976        1.80907226
      122.78444      111.34521175        1.70513551
      122.88414      107.09797416        1.65785570
      122.98383      107.09095291        1.69176910
      123.08352      102.99497484        1.64467733
      123.18322      104.09053059        1.92846359
      123.28291       99.03412344        1.70927572
      123.38260      100.30146622        1.66067332
      123.48230       97.89764798        1.58114843
      123.58199       98.78390808        1.48457760
      123.68168       94.78364277        1.65916885
      123.78138       93.03357153        1.48293566
      123.88107       90.97169273        1.43240189
      123.98076       88.33191519        1.43744324
      124.08046       87.63708962        1.41665850
      124.18015       88.83690833        1.61446830
      124.27984       87.33120238        1.43407168
      124.37954       84.67242762        1.33235266
      124.47923       82.33472231        1.28252677
      124.57893       77.75085874        1.32760624
