        5.04651       50.98060191        2.43353516
        5.14621       47.51303373        2.26388197
        5.24590       51.56450476        2.32494058
        5.34559       50.50899706        2.11033772
        5.44529       51.01798355        2.30743591
        5.54498       49.96602446        1.92077793
        5.64467       49.50772822        1.89520698
        5.74437       50.95185378        1.73564041
        5.84406       51.59032974        1.76747412
        5.94375       51.02455562        1.75536472
        6.04345       53.08577596        1.73990271
        6.14314       49.90349738        1.54441583
        6.24283       51.15664338        1.61537625
        6.34253       49.48762025        1.51530449
        6.44222       48.84156835        1.58507576
        6.54191       48.68617682        1.49921682
        6.64161       49.55584844        1.43293850
        6.74130       48.61338160        1.42493234
        6.84099       49.48689223        1.42731225
        6.94069       49.67655285        1.45158803
        7.04038       46.43880270        1.29537129
        7.14007       49.98429968        1.34129250
        7.23977       44.81353348        1.24758992
        7.33946       45.21717804        1.27239706
        7.43915       46.94302234        1.27961281
        7.53885       45.57487038        1.23750511
        7.63854       48.29451102        1.21767564
        7.73823       47.51251473        1.25407204
        7.83793       48.47144182        1.22580701
        7.93762       48.80965723        1.28316188
        8.03732       49.36868636        1.15736739
        8.13701       48.28105912        1.13933744
        8.23670       47.95905969        1.15154170
        8.33640       47.77570185        1.14964651
        8.43609       46.55485316        1.18640072
        8.53578       46.53028051        1.10477037
        8.63548       45.79679546        1.08340273
        8.73517       46.67065563        1.07287817
        8.83486       46.74383576        1.07633654
        8.93456       48.41780930        1.08987780
        9.03425       47.75095730        1.05062743
        9.13394       47.97870043        1.05512108
        9.23364       47.19948942        1.06176913
        9.33333       46.06162767        1.07020540
        9.43302       47.04698628        1.08203188
        9.53272       45.86886011        1.03225881
        9.63241       47.24171418        1.07725531
        9.73210       47.23097019        1.07497334
        9.83180       46.54696466        1.11194732
        9.93149       46.84149274        1.10748674
       10.03118       47.61049290        1.07435451
       10.13088       46.35165208        1.03460915
       10.23057       46.19897263        1.08165481
       10.33026       48.56397682        1.14642962
       10.42996       46.80499337        1.10998687
       10.52965       48.63013050        1.09579917
       10.62934       49.62727354        1.10967523
       10.72904       46.21610066        1.08656571
       10.82873       48.61150182        1.10884676
       10.92842       47.06391845        1.10928109
       11.02812       49.59233861        1.08493757
       11.12781       48.73112390        1.11401932
       11.22750       48.63855534        1.12404527
       11.32720       50.72746740        1.17889240
       11.42689       50.89055257        1.13982535
       11.52658       52.05857806        1.13913931
       11.62628       53.37030170        1.16597028
       11.72597       56.26598488        1.22273586
       11.82567       60.15977506        1.29967380
       11.92536       62.80607414        1.24283788
       12.02505       66.09059543        1.28100571
       12.12475       72.10225081        1.33706434
       12.22444       79.05342416        1.48490593
       12.32413       91.83360509        1.62549172
       12.42383      104.88021158        1.64942857
       12.52352      121.03386009        1.76168654
       12.62321      141.29881740        1.95842029
       12.72291      165.19235444        2.06160100
       12.82260      187.53530029        2.38868113
       12.92229      209.80273737        2.29544002
       13.02199      235.82783198        2.41524531
       13.12168      263.07489974        2.59607246
       13.22137      294.37463638        2.83628920
       13.32107      324.05456961        3.07261433
       13.42076      339.38462930        3.02633399
       13.52045      362.02059549        3.16397480
       13.62015      365.16319572        3.07948835
       13.71984      348.63396695        3.13514117
       13.81953      320.37062490        3.05550221
       13.91923      276.64405943        2.66579381
       14.01892      218.80157339        2.30700191
       14.11861      172.11224762        2.13423564
       14.21831      137.11755154        1.90635692
       14.31800      106.17146235        1.76529415
       14.41769       84.08403655        1.51251006
       14.51739       71.19166683        1.35759340
       14.61708       61.23464331        1.26202826
       14.71677       54.84192879        1.21366533
       14.81647       53.38117851        1.25434562
       14.91616       50.67485544        1.12380872
       15.01585       48.84586698        1.12316704
       15.11555       50.57574848        1.15620069
       15.21524       45.42864767        1.12917399
       15.31493       47.29839628        1.18003940
       15.41463       49.51479142        1.16910069
       15.51432       46.39495959        1.09648496
       15.61402       47.89848354        1.14238261
       15.71371       46.42638573        1.11690743
       15.81340       46.76286044        1.16612753
       15.91310       45.40801362        1.11648716
       16.01279       48.02482229        1.09949876
       16.11248       46.93463847        1.11609338
       16.21218       48.10129278        1.16123882
       16.31187       47.60568805        1.15804550
       16.41156       46.80372643        1.12683697
       16.51126       47.38156475        1.15296536
       16.61095       48.66764650        1.12675993
       16.71064       50.38482985        1.18278413
       16.81034       49.41316795        1.17482817
       16.91003       52.04660662        1.17106387
       17.00972       55.12170781        1.15707480
       17.10942       56.67576862        1.24014064
       17.20911       61.92664195        1.30799018
       17.30880       63.87410357        1.33999912
       17.40850       66.67970405        1.36889477
       17.50819       70.76925248        1.36952939
       17.60788       75.70001981        1.46065546
       17.70758       72.98614539        1.44000465
       17.80727       75.32675305        1.48109614
       17.90696       70.98499083        1.34409107
       18.00666       67.14104336        1.32997436
       18.10635       64.88143131        1.27159362
       18.20604       59.23846140        1.33267751
       18.30574       59.26362099        1.27041066
       18.40543       56.42973695        1.20887647
       18.50512       52.49389617        1.20258951
       18.60482       52.61338533        1.18508029
       18.70451       51.64174176        1.24068567
       18.80420       49.44989273        1.14044573
       18.90390       51.14760323        1.14754446
       19.00359       48.29148255        1.08578780
       19.10328       49.52599281        1.16339208
       19.20298       47.78644501        1.17826487
       19.30267       49.73913284        1.15447798
       19.40237       46.52996942        1.10385118
       19.50206       45.81813953        1.12288673
       19.60175       45.56437426        1.10720679
       19.70145       43.11452672        1.12926851
       19.80114       45.42527302        1.09946000
       19.90083       45.26226823        1.06039070
       20.00053       47.09581683        1.10091905
       20.10022       45.90969411        1.09499437
       20.19991       48.02301544        1.19740118
       20.29961       47.44330931        1.12765235
       20.39930       48.73065814        1.17742685
       20.49899       51.27188242        1.18686155
       20.59869       51.21709152        1.20791351
       20.69838       52.40744293        1.26698049
       20.79807       50.76388058        1.18927675
       20.89777       53.20082604        1.19004685
       20.99746       57.33191614        1.24785224
       21.09715       56.14273265        1.30062881
       21.19685       57.47888867        1.30921721
       21.29654       60.03325214        1.30532090
       21.39623       56.58842976        1.26722936
       21.49593       54.41882006        1.22484368
       21.59562       53.23232624        1.24053685
       21.69531       51.84011541        1.27327489
       21.79501       50.33454001        1.14769296
       21.89470       45.83637117        1.07039716
       21.99439       46.96259266        1.12944887
       22.09409       47.91271191        1.14368203
       22.19378       46.41643810        1.19540111
       22.29347       48.23374285        1.13498821
       22.39317       46.50588275        1.14327526
       22.49286       46.17545723        1.13828270
       22.59255       45.73917912        1.14619567
       22.69225       50.34289234        1.26739762
       22.79194       50.96886603        1.14532105
       22.89163       51.99691313        1.13423703
       22.99133       57.20372583        1.22288708
       23.09102       62.62164657        1.32905713
       23.19072       63.94783643        1.34628745
       23.29041       69.71051517        1.38841995
       23.39010       66.78643642        1.37308424
       23.48980       66.32071057        1.37323352
       23.58949       65.32324794        1.38109531
       23.68918       63.51269007        1.43195051
       23.78888       55.50844520        1.19269599
       23.88857       52.26533551        1.17234031
       23.98826       49.03104696        1.16071899
       24.08796       47.75397875        1.12313370
       24.18765       45.35022154        1.17266699
       24.28734       43.75950022        1.09667626
       24.38704       44.94917588        1.13010796
       24.48673       43.23877918        1.10436767
       24.58642       44.55066966        1.15814131
       24.68612       41.68515633        1.11868306
       24.78581       44.35595836        1.06385947
       24.88550       45.02283775        1.07141528
       24.98520       46.29101907        1.12663652
       25.08489       45.68937096        1.14161588
       25.18458       47.59735306        1.18976564
       25.28428       45.44549664        1.12041473
       25.38397       49.52269396        1.16408098
       25.48366       50.71692234        1.18513035
       25.58336       56.78053378        1.30729450
       25.68305       62.86636244        1.34939017
       25.78274       71.55052212        1.35901627
       25.88244       85.19636242        1.52090096
       25.98213      105.46497253        1.70675907
       26.08182      127.39148915        1.92580116
       26.18152      150.04681089        2.14139073
       26.28121      176.67986471        2.19907831
       26.38090      192.23546964        2.31378446
       26.48060      198.21537551        2.41472163
       26.58029      183.39618055        2.42229805
       26.67998      171.44956139        2.21194677
       26.77968      149.97463662        2.04370168
       26.87937      114.14850844        1.75612184
       26.97907       93.46064140        1.57522370
       27.07876       80.39825841        1.57272080
       27.17845       77.20095033        1.47268954
       27.27815       75.48232691        1.42198701
       27.37784       84.41385438        1.56280771
       27.47753       85.75045385        1.55191786
       27.57723       85.66632740        1.62491099
       27.67692       84.76676666        1.57766783
       27.77661       76.22197772        1.42755057
       27.87631       70.69014246        1.35177630
       27.97600       61.69109661        1.29096549
       28.07569       57.61596806        1.32031535
       28.17539       54.55911968        1.22989328
       28.27508       51.60112775        1.19650763
       28.37477       49.14007583        1.19531562
       28.47447       49.69656943        1.19270004
       28.57416       51.84294635        1.31710327
       28.67385       51.04460740        1.16270970
       28.77355       55.19166323        1.18736880
       28.87324       54.15093654        1.20739381
       28.97293       60.39140028        1.27832107
       29.07263       57.32952112        1.35750334
       29.17232       56.62086004        1.23112944
       29.27201       55.45498145        1.24085294
       29.37171       51.65860010        1.23185239
       29.47140       51.22961541        1.21255890
       29.57109       48.12095894        1.24604616
       29.67079       48.67834386        1.14096455
       29.77048       46.56665864        1.11844865
       29.87017       47.67402788        1.10950055
       29.96987       46.86004805        1.15333542
       30.06956       43.94520199        1.15215637
       30.16925       47.79958528        1.13155442
       30.26895       46.82994379        1.12425864
       30.36864       46.96893513        1.14433082
       30.46833       49.75917860        1.18988080
       30.56803       53.17329729        1.29946547
       30.66772       55.41649098        1.23457945
       30.76742       55.71747105        1.21314545
       30.86711       62.08725871        1.30641220
       30.96680       61.62626683        1.30904636
       31.06650       62.68774922        1.38442716
       31.16619       60.03448320        1.27373460
       31.26588       58.75646087        1.25248586
       31.36558       59.00746646        1.27161254
       31.46527       56.41387721        1.29360661
       31.56496       56.11104426        1.31083020
       31.66466       63.40142019        1.30339974
       31.76435       68.33867391        1.35198798
       31.86404       77.37181314        1.42002870
       31.96374       82.93959020        1.50455383
       32.06343       89.65238670        1.61911350
       32.16312       85.34447785        1.48439774
       32.26282       80.68776887        1.47841784
       32.36251       80.18788293        1.53286017
       32.46220       73.92710229        1.49795247
       32.56190       68.73724225        1.46982332
       32.66159       68.51747937        1.39359714
       32.76128       67.69343678        1.35408595
       32.86098       65.26579043        1.34943971
       32.96067       63.82772394        1.35114265
       33.06036       61.39065781        1.34916127
       33.16006       57.41349401        1.22856524
       33.25975       55.97475769        1.25242014
       33.35944       54.67551010        1.24445086
       33.45914       56.43285443        1.31246238
       33.55883       55.81786460        1.30831637
       33.65852       62.26826770        1.28883419
       33.75822       67.01566029        1.33491626
       33.85791       71.84177812        1.38791139
       33.95760       83.16133318        1.53781057
       34.05730       90.07179971        1.58504825
       34.15699      106.03184968        1.69304436
       34.25668      122.50839987        1.81403811
       34.35638      149.64305840        2.05768517
       34.45607      187.70193533        2.42851786
       34.55577      226.45708090        2.54265604
       34.65546      293.68849080        2.77906214
       34.75515      365.07438268        3.15931033
       34.85485      421.09208512        3.36854217
       34.95454      441.99464806        3.55995152
       35.05423      433.26279305        3.64533277
       35.15393      394.42077409        3.26568801
       35.25362      316.39185026        2.96795084
       35.35331      253.92510061        2.72720419
       35.45301      190.23690737        2.46137824
       35.55270      141.61439204        2.06643221
       35.65239      113.57065131        1.78671981
       35.75209       88.77623550        1.56728444
       35.85178       80.15811589        1.48700775
       35.95147       72.14017444        1.44357039
       36.05117       70.80781527        1.40073026
       36.15086       68.80039169        1.32756343
       36.25055       62.89861580        1.32592029
       36.35025       61.96466283        1.34178611
       36.44994       58.28586686        1.32719853
       36.54963       56.30769624        1.25216639
       36.64933       57.52224490        1.24676947
       36.74902       56.22053126        1.24540582
       36.84871       53.98841835        1.21153300
       36.94841       52.59343337        1.29309935
       37.04810       49.86981642        1.11016579
       37.14779       48.95514667        1.12245672
       37.24749       49.46193938        1.15965737
       37.34718       47.80262903        1.16905310
       37.44687       45.38363340        1.22350354
       37.54657       46.52761098        1.13101429
       37.64626       44.90733807        1.10682289
       37.74595       48.04449362        1.12705549
       37.84565       46.02271479        1.16708207
       37.94534       45.67749850        1.18447885
       38.04503       47.54095551        1.09225344
       38.14473       47.74829662        1.10536793
       38.24442       48.38733525        1.13310253
       38.34412       47.16316017        1.16951100
       38.44381       48.12516477        1.27745813
       38.54350       51.29932263        1.17582659
       38.64320       49.70420660        1.15382849
       38.74289       50.53748231        1.17871139
       38.84258       53.70314472        1.21814186
       38.94228       57.32154312        1.32017930
       39.04197       58.39065122        1.20150389
       39.14166       63.63654707        1.30502813
       39.24136       68.84276295        1.35392715
       39.34105       70.24358801        1.41537582
       39.44074       72.60221761        1.56967135
       39.54044       71.25869472        1.39038321
       39.64013       69.26523904        1.36652274
       39.73982       66.53455509        1.34462655
       39.83952       62.98712671        1.29930286
       39.93921       61.05293383        1.35627873
       40.03890       57.83477314        1.20819453
       40.13860       59.51018271        1.22406101
       40.23829       55.61450452        1.22501366
       40.33798       58.21276967        1.29249013
       40.43768       55.26903679        1.31752463
       40.53737       54.88171096        1.21852350
       40.63706       57.59599538        1.27462323
       40.73676       57.38950382        1.27030616
       40.83645       57.92352646        1.28687995
       40.93614       65.03525570        1.38678279
       41.03584       66.67619072        1.32147696
       41.13553       77.42219692        1.42601761
       41.23522       92.69820702        1.59882926
       41.33492      115.22892136        1.86692118
       41.43461      139.39232418        2.12011380
       41.53430      163.29501299        2.14975716
       41.63400      192.60814818        2.38698768
       41.73369      210.91176034        2.44397542
       41.83338      215.45252651        2.53615346
       41.93308      217.42644391        2.52514526
       42.03277      226.92177504        2.35841098
       42.13247      249.00637682        2.59744708
       42.23216      295.58948262        2.83684084
       42.33185      358.28352805        3.35473393
       42.43155      411.83949343        3.54410289
       42.53124      479.31770618        3.70398931
       42.63093      516.65576856        3.85257886
       42.73063      534.16741826        3.93515663
       42.83032      516.87014642        3.93861453
       42.93001      489.97384259        3.69114431
       43.02971      423.37755532        3.24023716
       43.12940      343.52933420        2.97653028
       43.22909      260.09428342        2.71987919
       43.32879      204.71743144        2.54097418
       43.42848      153.49463750        2.15034562
       43.52817      113.98000964        1.77176219
       43.62787       86.29454856        1.53568082
       43.72756       74.51228885        1.46048355
       43.82725       66.84053393        1.44414450
       43.92695       62.49750279        1.26618902
       44.02664       57.07348726        1.20401722
       44.12633       56.32257287        1.24063581
       44.22603       56.61368586        1.29468163
       44.32572       54.20769273        1.33512173
       44.42541       51.66189936        1.24430625
       44.52511       53.23681870        1.22922372
       44.62480       52.85885437        1.24215034
       44.72449       57.50437354        1.25572600
       44.82419       60.83402700        1.44942543
       44.92388       64.99286103        1.24960207
       45.02357       75.11077109        1.35471068
       45.12327       88.01419384        1.51090265
       45.22296      103.80914333        1.68456498
       45.32265      126.91763437        2.06135676
       45.42235      150.59043514        2.04525686
       45.52204      177.52039978        2.19915618
       45.62174      203.34013971        2.39727067
       45.72143      218.91143782        2.48753773
       45.82112      222.20510716        2.74321197
       45.92082      230.63299628        2.37319623
       46.02051      230.23089386        2.42181900
       46.12020      223.08579625        2.39147762
       46.21990      220.10429222        2.49657346
       46.31959      196.08276742        2.54331503
       46.41928      181.22283716        2.25804171
       46.51898      154.69467366        2.09688013
       46.61867      126.36097235        1.88453255
       46.71836      106.55926640        1.77439654
       46.81806       87.76209892        1.66899593
       46.91775       71.98350580        1.31699053
       47.01744       62.66004517        1.25769796
       47.11714       63.62447336        1.29632717
       47.21683       68.27922433        1.38261622
       47.31652       78.47905112        1.61755026
       47.41622       87.44143620        1.60930638
       47.51591      100.86986073        1.73205537
       47.61560      121.29448533        1.88422221
       47.71530      130.84201212        1.97811219
       47.81499      145.00556301        2.13524994
       47.91468      160.37232994        1.96491378
       48.01438      169.54843896        2.02149462
       48.11407      172.46214510        2.11509619
       48.21376      170.37177608        2.19473704
       48.31346      166.87786717        2.24944049
       48.41315      157.34508038        2.03569352
       48.51284      142.49621689        2.00126295
       48.61254      125.91621818        1.87311530
       48.71223      107.56801933        1.76209581
       48.81192       92.93795511        1.63356112
       48.91162       77.02165752        1.33262569
       49.01131       64.69620256        1.26377745
       49.11100       54.95488162        1.20637607
       49.21070       55.15359584        1.26887727
       49.31039       51.02168519        1.25586523
       49.41009       51.81970940        1.19568041
       49.50978       49.88382890        1.19732752
       49.60947       48.57718657        1.19013660
       49.70917       48.52333633        1.23358016
       49.80886       48.61801381        1.20175375
       49.90855       48.81499683        1.09694359
       50.00825       48.95037660        1.12167036
       50.10794       49.68010731        1.15574684
       50.20763       51.23897421        1.22635339
       50.30733       51.91915721        1.29311965
       50.40702       51.20670318        1.20426493
       50.50671       55.13610068        1.25345954
       50.60641       55.52990660        1.25972728
       50.70610       55.73523115        1.29861644
       50.80579       56.84777002        1.29425697
       50.90549       56.88801518        1.16729686
       51.00518       54.87737812        1.15656563
       51.10487       54.48885104        1.19127628
       51.20457       56.00035972        1.28575869
       51.30426       54.90024069        1.26639541
       51.40395       57.35089759        1.24096558
       51.50365       58.06262023        1.26293459
       51.60334       58.96753024        1.29791486
       51.70303       59.58422748        1.38553154
       51.80273       60.68403188        1.28263203
       51.90242       61.23165400        1.20379389
       52.00211       61.19774256        1.20915018
       52.10181       61.01977561        1.24559713
       52.20150       61.72676476        1.37970042
       52.30119       63.22533051        1.34517139
       52.40089       62.23789179        1.31368166
       52.50058       59.51197620        1.30873345
       52.60027       60.97942597        1.34293442
       52.69997       62.07130665        1.48491067
       52.79966       61.99655053        1.24765531
       52.89935       65.10475517        1.23378152
       52.99905       75.72748908        1.35281964
       53.09874       86.33738627        1.49145330
       53.19844       97.97868819        1.81990105
       53.29813      109.40259570        1.70937853
       53.39782      120.88470794        1.85918523
       53.49752      132.51370017        1.95583597
       53.59721      145.59422455        2.04916064
       53.69690      147.92261792        2.26632375
       53.79660      149.57741060        1.90906002
       53.89629      149.94718950        1.89083023
       53.99598      143.11623156        1.89207500
       54.09568      135.86734999        1.92489315
       54.19537      124.97912847        2.01294791
       54.29506      112.91621614        1.75726514
       54.39476      106.69924399        1.72128347
       54.49445       96.18428494        1.63498039
       54.59414       94.77483378        1.64768582
       54.69384       89.14179248        1.70443027
       54.79353       87.91106810        1.45145051
       54.89322       85.40832132        1.42539215
       54.99292       78.80478973        1.40897943
       55.09261       76.53845281        1.44395964
       55.19230       72.29076729        1.50682711
       55.29200       64.80687600        1.32757966
       55.39169       62.93879149        1.34988897
       55.49138       58.47239505        1.29610424
       55.59108       55.95877402        1.30850089
       55.69077       56.74201800        1.35228091
       55.79046       54.55676683        1.15919488
       55.89016       55.05139824        1.16167610
       55.98985       56.69654438        1.18653172
       56.08954       61.37830038        1.27543888
       56.18924       62.48709129        1.38887026
       56.28893       73.21518270        1.37638065
       56.38862       83.84773235        1.52402243
       56.48832       93.76766567        1.63975443
       56.58801      104.47301640        1.78133028
       56.68770      113.29766235        1.91501354
       56.78740      115.15742690        1.65236361
       56.88709      113.89460788        1.65961146
       56.98679      109.04059308        1.62513352
       57.08648       97.06406929        1.62486647
       57.18617       86.36246947        1.58656892
       57.28587       74.43100990        1.37573803
       57.38556       67.14062075        1.39068591
       57.48525       58.26271922        1.32004022
       57.58495       56.23796112        1.32657682
       57.68464       54.80374757        1.32093157
       57.78433       52.95985781        1.13588030
       57.88403       52.03505646        1.13900833
       57.98372       52.57352276        1.16313940
       58.08341       52.81057102        1.26046625
       58.18311       53.54120007        1.29829632
       58.28280       51.88011371        1.20366189
       58.38249       53.14875251        1.27305508
       58.48219       52.72042467        1.29527403
       58.58188       52.38645477        1.30527024
       58.68157       52.78154721        1.28388585
       58.78127       55.31214828        1.14972717
       58.88096       53.05495220        1.10932110
       58.98065       54.32512863        1.16531566
       59.08035       57.11783598        1.27513609
       59.18004       61.32269942        1.34046728
       59.27973       60.49396871        1.25609298
       59.37943       61.47263686        1.30798246
       59.47912       65.42045761        1.40480716
       59.57881       71.77417861        1.54176903
       59.67851       76.73497779        1.48645095
       59.77820       83.50991197        1.42576957
       59.87789       91.29402380        1.48572671
       59.97759       97.77037273        1.60860371
       60.07728      103.93639380        1.79636019
       60.17697      105.17991897        1.72149554
       60.27667      109.12189411        1.70499666
       60.37636      107.19559818        1.72254387
       60.47605      104.27080670        1.77217883
       60.57575      102.04559339        1.92129709
       60.67544       94.41796211        1.58741363
       60.77514       85.74265683        1.43778316
       60.87483       76.89826820        1.33487595
       60.97452       72.00363926        1.36062757
       61.07422       68.21327349        1.48756609
       61.17391       65.88730145        1.26632603
       61.27360       66.33465662        1.31575856
       61.37330       68.36653913        1.38539630
       61.47299       65.75245291        1.41823149
       61.57268       67.89740504        1.63899963
       61.67238       69.56389627        1.35219430
       61.77207       70.64679503        1.32719917
       61.87176       69.91338424        1.30554819
       61.97146       70.23250942        1.35854338
       62.07115       66.47525994        1.49672153
       62.17084       68.33099774        1.32957793
       62.27054       65.00985348        1.35206354
       62.37023       67.21238421        1.42965534
       62.46992       68.89039880        1.49708779
       62.56962       70.29053191        1.69853802
       62.66931       72.28406501        1.38769338
       62.76900       74.64533694        1.37456522
       62.86870       83.15365702        1.41950316
       62.96839       90.89571942        1.53179225
       63.06808       97.60540244        1.76677110
       63.16778      105.41054464        1.63017349
       63.26747      114.06688514        1.75526783
       63.36716      114.37330097        1.82392550
       63.46686      118.18476560        1.90982481
       63.56655      123.94645261        2.07812330
       63.66624      127.78243862        1.79353425
       63.76594      146.55412892        1.86678728
       63.86563      159.91226398        1.94465991
       63.96532      171.28684646        2.10667972
       64.06502      175.42942363        2.28427890
       64.16471      174.55092963        2.10758716
       64.26440      163.99387724        2.12608410
       64.36410      153.30384700        2.09669319
       64.46379      138.57250265        2.10744252
       64.56349      119.81066443        1.99346037
       64.66318      106.46185629        1.64423993
       64.76287       85.65567525        1.45582589
       64.86257       78.14669132        1.38822490
       64.96226       65.14407187        1.32712268
       65.06195       58.81023929        1.36322828
       65.16165       53.47859305        1.17247136
       65.26134       52.69943496        1.19111911
       65.36103       51.44112572        1.22792575
       65.46073       53.64496199        1.29525342
       65.56042       54.07803373        1.35828319
       65.66011       55.67377381        1.20178035
       65.75981       58.87378593        1.22360970
       65.85950       59.43992495        1.22165153
       65.95919       60.98873507        1.29542546
       66.05889       65.88512503        1.39289071
       66.15858       68.73458166        1.35295852
       66.25827       74.67204762        1.45859331
       66.35797       87.67568937        1.64703103
       66.45766       95.77047162        1.82927901
       66.55735      107.17775487        1.93508900
       66.65705      123.24908385        1.84137308
       66.75674      136.81185554        1.89100106
       66.85643      151.80061728        1.96990801
       66.95613      162.87629702        2.12215422
       67.05582      173.70344635        2.20869098
       67.15551      172.80601408        2.09632033
       67.25521      164.42400751        2.14587008
       67.35490      150.76113323        2.16248094
       67.45459      134.27935889        2.15159678
       67.55429      123.95531247        1.98040556
       67.65398      105.16630632        1.63444115
       67.75367       89.17771086        1.49222662
       67.85337       79.00530412        1.42147945
       67.95306       74.51229528        1.47597680
       68.05275       74.97786527        1.40197180
       68.15245       81.06008624        1.44542006
       68.25214       87.22971054        1.59167441
       68.35184       92.71145938        1.71030007
       68.45153       99.69358802        1.95270836
       68.55122      105.11182088        1.72746112
       68.65092      115.99720179        1.69191091
       68.75061      122.83472723        1.75929839
       68.85030      124.37110534        1.80438201
       68.95000      128.24424432        2.07764602
       69.04969      126.38893380        1.74184198
       69.14938      114.08323562        1.70114331
       69.24908      104.32533664        1.73692990
       69.34877       92.01810032        1.68666523
       69.44846       86.30640600        1.89453925
       69.54816       77.59928331        1.40035295
       69.64785       68.76544160        1.29939787
       69.74754       60.76973918        1.23353021
       69.84724       55.73814200        1.21198976
       69.94693       52.84281827        1.33168915
       70.04662       49.86181299        1.06366343
       70.14632       48.75248389        1.09365039
       70.24601       46.48660720        1.14337964
       70.34570       45.46560748        1.19651151
       70.44540       45.34502989        1.40789672
       70.54509       49.15823844        1.14756342
       70.64478       48.40201045        1.13705264
       70.74448       49.18340128        1.16439351
       70.84417       52.38648291        1.24713688
       70.94386       51.28100447        1.35443217
       71.04356       48.90936017        1.09447352
       71.14325       51.63683860        1.16874656
       71.24294       52.77416448        1.24322834
       71.34264       53.48112379        1.32708278
       71.44233       54.15734496        1.49024946
       71.54202       55.31842673        1.22623613
       71.64172       55.60880171        1.19595626
       71.74141       53.68733609        1.15371033
       71.84110       50.99154865        1.16379120
       71.94080       51.66749217        1.27657740
       72.04049       52.30106418        1.08712556
       72.14019       50.00049090        1.10739926
       72.23988       51.54293421        1.17648430
       72.33957       48.75651525        1.27799998
       72.43927       54.89074383        1.49302239
       72.53896       52.73071139        1.17320225
       72.63865       54.01342645        1.16066844
       72.73835       56.91772094        1.16537948
       72.83804       58.76320067        1.25047022
       72.93773       54.93034216        1.28405144
       73.03743       62.46805668        1.18890009
       73.13712       60.71638120        1.23600462
       73.23681       59.84229557        1.28911384
       73.33651       61.48835014        1.43793933
       73.43620       64.92587454        1.60063013
       73.53589       64.73226336        1.28927588
       73.63559       62.45660552        1.24642454
       73.73528       67.63814144        1.29143972
       73.83497       65.82370535        1.35056364
       73.93467       63.65455345        1.39841156
       74.03436       65.93379829        1.25965309
       74.13405       65.27321127        1.30658246
       74.23375       65.11881133        1.35937524
       74.33344       66.59025347        1.51337700
       74.43313       61.26375615        1.50597513
       74.53283       64.26044168        1.31059383
       74.63252       68.08561264        1.33943924
       74.73221       70.53879996        1.35680018
       74.83191       75.25680945        1.48687326
       74.93160       76.96278224        1.52064114
       75.03129       79.73416935        1.37611663
       75.13099       86.22447366        1.48253957
       75.23068       89.83969370        1.57859983
       75.33037       97.34302643        1.80658704
       75.43007      100.50982092        1.86231490
       75.52976      107.74072970        1.67503874
       75.62945      115.19845454        1.73081199
       75.72915      125.15808073        1.79739906
       75.82884      132.83782704        1.99408415
       75.92854      135.59908509        1.89138152
       76.02823      141.46457185        1.81209580
       76.12792      152.39869182        1.96652588
       76.22762      151.27255739        2.06700137
       76.32731      159.10506264        2.39476128
       76.42700      152.97354539        2.21577266
       76.52670      148.01217856        2.01041141
       76.62639      138.53609178        1.91983985
       76.72608      131.32045968        1.83779247
       76.82578      128.16766207        2.09190899
       76.92547      125.60394949        1.65861519
       77.02516      120.97752022        1.68685685
       77.12486      122.64470899        1.78427208
       77.22455      125.81600230        1.92442870
       77.32424      128.94819846        2.39366397
       77.42394      132.65479350        1.93875554
       77.52363      133.22760648        1.87751638
       77.62332      135.43747571        1.88445322
       77.72302      142.56330588        1.93818476
       77.82271      142.65412715        2.27368808
       77.92240      147.04436479        1.76789663
       78.02210      145.16043716        1.89524467
       78.12179      140.33435614        1.98997559
       78.22148      138.63071639        2.09144754
       78.32118      137.52174631        2.41707535
       78.42087      128.16135303        1.83587688
       78.52056      122.31974118        1.85186791
       78.62026      113.57942185        1.77003192
       78.71995      109.35630444        1.74247902
       78.81964      106.49286108        1.92057845
       78.91934       93.57495815        1.39444719
       79.01903       84.42088374        1.45171031
       79.11872       76.48778310        1.43772876
       79.21842       71.09299678        1.47840482
       79.31811       69.07722940        1.64142651
       79.41780       66.22798252        1.30365669
       79.51750       66.53689867        1.32775831
       79.61719       66.39954350        1.33028393
       79.71689       62.56695102        1.34051599
       79.81658       64.54618783        1.44340976
       79.91627       64.70670537        1.22503507
       80.01597       62.59698426        1.23836856
       80.11566       63.88945897        1.30790053
       80.21535       62.83741109        1.38647357
       80.31505       65.02760826        1.67679077
       80.41474       65.04140357        1.28860930
       80.51443       67.40309605        1.30615752
       80.61413       72.07479438        1.39567787
       80.71382       77.20495764        1.49452734
       80.81351       83.51246157        1.74697015
       80.91321       91.23764226        1.34681593
       81.01290      106.94258818        1.57475481
       81.11259      122.46591126        1.81952232
       81.21229      144.02410469        2.13539670
       81.31198      156.11902790        2.48053893
       81.41167      175.11579471        2.05770901
       81.51137      196.81744826        2.24511757
       81.61106      215.38390473        2.45324911
       81.71075      231.92383458        2.63561446
       81.81045      238.00005068        2.82859501
       81.91014      256.03132491        2.25663570
       82.00983      264.55028028        2.45189613
       82.10953      283.88853080        2.84278131
       82.20922      292.02827327        3.20709754
       82.30891      290.69016080        3.35474721
       82.40861      295.21883884        2.74959788
       82.50830      286.52346664        2.70098493
       82.60799      283.66612956        2.89470747
       82.70769      281.70289405        3.13909573
       82.80738      290.41866541        3.04627837
       82.90707      282.17152536        2.43774681
       83.00677      271.31373805        2.54636721
       83.10646      261.83870880        2.94293618
       83.20615      252.45804344        3.21609198
       83.30585      242.90735548        2.98819028
       83.40554      221.06826959        2.36894182
       83.50524      204.82162042        2.22443887
       83.60493      184.87277927        2.32729465
       83.70462      174.22286528        2.54730891
       83.80432      159.75643517        2.13115407
       83.90401      134.16776505        1.63735009
       84.00370      117.14144711        1.59520918
       84.10340       99.52816456        1.75633381
       84.20309       90.69822075        2.03504291
       84.30278       83.14496286        1.58433767
       84.40248       74.38544604        1.32224717
       84.50217       71.92278336        1.27545046
       84.60186       66.31974597        1.38463941
       84.70156       66.55820035        1.81519410
       84.80125       65.76014397        1.25613583
       84.90094       62.58979621        1.10074979
       85.00064       62.80959340        1.13609921
       85.10033       66.42029947        1.38282774
       85.20002       62.07800617        2.29250268
       85.29972       65.91085652        1.24625144
       85.39941       66.86043156        1.27977385
       85.49910       67.29073831        1.24856413
       85.59880       66.90214646        1.39988671
       85.69849       67.85097512        2.53112574
       85.79818       65.33518340        1.17089962
       85.89788       64.10222827        1.13203847
       85.99757       64.76145318        1.16916521
       86.09726       64.04071590        1.33484986
       86.19696       59.44827663        2.46974643
       86.29665       65.28947594        1.22507944
       86.39634       61.78699909        1.21230013
       86.49604       60.27679421        1.17922175
       86.59573       56.22119260        1.21326680
       86.69542       59.08778068        2.60082384
       86.79512       54.13763062        1.03323307
       86.89481       54.58332318        1.02287370
       86.99451       53.50562020        1.04969365
       87.09420       55.17539366        1.18889056
       87.19389       53.77691317        2.78016374
       87.29359       53.45699045        1.12335642
       87.39328       49.59082753        1.09644061
       87.49297       50.56813121        1.07486790
       87.59267       49.85410237        1.08821157
       87.69236       51.65373943        3.31470945
       87.79205       50.66964957        1.02265354
       87.89175       48.91378450        0.99662719
       87.99144       50.50073130        1.05527035
       88.09113       50.18627640        1.11811576
       88.19083       50.53179604        5.93717275
       88.29052       47.43691874        1.09380148
       88.39021       48.83784217        1.11728808
       88.48991       48.46927767        1.06821285
       88.58960       49.44998226        1.04492101
       88.68929       65.46689767        9.31904288
       88.78899       49.99169371        1.01412275
       88.88868       49.34025656        0.98546694
       88.98837       49.87225734        1.03050708
       89.08807       49.24378319        1.04882688
       89.18776       57.99641405        9.26410180
       89.28745       51.48175427        1.08965067
       89.38715       53.01003069        1.11712331
       89.48684       52.69092135        1.08991245
       89.58653       56.39241938        1.10478076
       89.68623       71.51006894       10.09090320
       89.78592       56.02685149        1.06999048
       89.88561       61.06498468        1.09532596
       89.98531       65.20978507        1.16079478
       90.08500       68.38025059        1.23295058
       90.18469       79.72323987       11.10753004
       90.28439       74.30946619        1.31292972
       90.38408       79.79341511        1.38358728
       90.48377       82.89782588        1.38388136
       90.58347       89.23748155        1.41353261
       90.68316      100.94788542       11.71569510
       90.78286       92.11743265        1.37486116
       90.88255       96.35067893        1.36837772
       90.98224       97.38911108        1.42342216
       91.08194      100.58762212        1.49423570
       91.18163       98.22467120       11.78169624
       91.28132       97.99623838        1.51837555
       91.38102       99.04496626        1.56704695
       91.48071       95.93591872        1.50424848
       91.58040       91.72373982        1.42229511
       91.68010       85.61296117       10.39329853
       91.77979       88.01541285        1.33729726
       91.87948       82.88301401        1.27745490
       91.97918       80.37837210        1.30620927
       92.07887       78.17768894        1.34179862
       92.17856       72.84319919        9.84614593
       92.27826       78.78788568        1.39123389
       92.37795       75.90056616        1.39775499
       92.47764       77.72196763        1.34280201
       92.57734       77.90257023        1.30417688
       92.67703       77.31618548        8.43365012
       92.77672       80.83121597        1.28050240
       92.87642       80.46188394        1.25315990
       92.97611       85.46867042        1.34888362
       93.07580       91.63072908        1.59438040
       93.17550       92.45855813        3.01166395
       93.27519       92.77374762        1.47877269
       93.37488       92.45398157        1.43497593
       93.47458       94.38125303        1.46589522
       93.57427       95.54713141        1.70526271
       93.67396      101.14920753        2.37158056
       93.77366       99.52675678        1.45723884
       93.87335       95.15959300        1.36085783
       93.97304       91.79034769        1.39269193
       94.07274       91.25871882        1.80285160
       94.17243       88.17964746        2.02186986
       94.27212       91.29244560        1.53243839
       94.37182       89.56380528        1.47921522
       94.47151       87.13764151        1.39717276
       94.57121       87.67229465        1.84962219
       94.67090       84.03940739        1.83163382
       94.77059       84.82671718        1.43055455
       94.87029       77.91009390        1.24639475
       94.96998       72.86358936        1.22041054
       95.06967       68.62676007        1.36515612
       95.16937       71.90420673        1.91309299
       95.26906       67.82096206        1.43513210
       95.36875       62.67841028        1.25166662
       95.46845       62.30939141        1.19934633
       95.56814       61.78347867        1.37421880
       95.66783       59.48152492        1.51471565
       95.76753       57.46019295        1.23016882
       95.86722       54.83821562        1.02215658
       95.96691       52.42557510        1.03656105
       96.06661       53.22126272        1.33793261
       96.16630       51.70531542        1.40622682
       96.26599       50.17049922        1.24393105
       96.36569       49.21495891        1.10543621
       96.46538       50.25299283        1.07807526
       96.56507       49.24024386        1.31710302
       96.66477       46.52671661        1.24743885
       96.76446       47.11187826        1.12174551
       96.86415       47.55868710        0.97626152
       96.96385       47.06291290        1.00303864
       97.06354       47.19528605        1.35822609
       97.16323       47.65901887        1.30506505
       97.26293       48.06271998        1.23130770
       97.36262       49.11069525        1.15263666
       97.46231       48.51615471        1.05394511
       97.56201       50.34313225        1.36597538
       97.66170       48.01433220        1.19808968
       97.76139       52.74849814        1.14103945
       97.86109       52.72697979        1.03157255
       97.96078       53.30457593        1.05988590
       98.06047       54.32176147        1.48619472
       98.16017       53.08210193        1.30595291
       98.25986       53.76095885        1.25539847
       98.35956       56.05419424        1.21032097
       98.45925       60.44473366        1.17329960
       98.55894       64.38036429        1.57977849
       98.65864       66.52935547        1.37801050
       98.75833       67.90146763        1.30083707
       98.85802       68.48067899        1.21980663
       98.95772       71.01190791        1.23396420
       99.05741       71.35270874        1.71717060
       99.15710       71.76273346        1.48101970
       99.25680       76.16176265        1.47837621
       99.35649       77.27073720        1.41830822
       99.45618       80.02454522        1.34521016
       99.55588       81.75888534        1.81693107
       99.65557       84.39380375        1.52304952
       99.75526       86.67878079        1.44681675
       99.85496       85.96962844        1.37136877
       99.95465       85.76831838        1.34287772
      100.05434       83.77051136        1.89049127
      100.15404       85.93103341        1.61287430
      100.25373       88.14709252        1.61410149
      100.35342       85.13950819        1.57995872
      100.45312       85.77312425        1.44710152
      100.55281       81.70020529        1.85469621
      100.65250       81.30738540        1.50729035
      100.75220       82.12634963        1.40323109
      100.85189       79.76714651        1.32128261
      100.95158       82.67196155        1.30932028
      101.05128       78.03720846        1.81332272
      101.15097       79.87069760        1.51627234
      101.25066       76.60920684        1.46702039
      101.35036       78.02693228        1.49344158
      101.45005       76.50896330        1.39057633
      101.54974       72.70287893        1.68815287
      101.64944       74.49012877        1.39423666
      101.74913       75.06765189        1.31878152
      101.84882       75.06301099        1.28368843
      101.94852       78.64884437        1.38428944
      102.04821       76.13900348        1.64036922
      102.14791       78.60880867        1.50226574
      102.24760       80.98409110        1.51204304
      102.34729       81.76292335        1.51313748
      102.44699       80.41953826        1.52667407
      102.54668       81.10611070        1.60883232
      102.64637       83.34766848        1.45671980
      102.74607       83.25176653        1.38653030
      102.84576       85.25174993        1.37654016
      102.94545       84.20088051        1.55806014
      103.04515       88.10518696        1.68744201
      103.14484       85.32526505        1.55136275
      103.24453       83.34997693        1.50954000
      103.34423       82.98819828        1.49404839
      103.44392       83.34681873        1.62191035
      103.54361       88.05931868        1.61979921
      103.64331       85.80525023        1.45534001
      103.74300       85.47707786        1.38552532
      103.84269       87.11717679        1.37462065
      103.94239       82.04034555        1.60276682
      104.04208       80.26964776        1.53365614
      104.14177       84.12867483        1.52776399
      104.24147       83.36056723        1.51995910
      104.34116       79.22581282        1.49076675
      104.44085       84.13159620        1.74508415
      104.54055       79.62627971        1.53685247
      104.64024       80.59839614        1.45347416
      104.73993       76.07061990        1.34726143
      104.83963       72.76947932        1.26937707
      104.93932       71.54955603        1.52584063
      105.03901       73.84352666        1.46070365
      105.13871       72.04155148        1.38912542
      105.23840       70.54773588        1.37378627
      105.33809       71.77200501        1.39389495
      105.43779       71.46517353        1.61836537
      105.53748       66.26962271        1.39732707
      105.63717       66.90004226        1.28692053
      105.73687       63.75066570        1.19543399
      105.83656       61.06946945        1.13999162
      105.93626       61.09265774        1.44492884
      106.03595       61.15684813        1.31026889
      106.13564       59.12824838        1.24512717
      106.23534       57.10364044        1.23860389
      106.33503       56.13732685        1.24044356
      106.43472       52.17607493        1.41360344
      106.53442       55.28251706        1.26577098
      106.63411       52.01867529        1.11524062
      106.73380       55.32617799        1.09632861
      106.83350       54.87946193        1.07557510
      106.93319       54.78228917        1.39304732
      107.03288       57.71184122        1.26735018
      107.13258       55.82808912        1.20981592
      107.23227       57.20824315        1.24251316
      107.33196       56.42284838        1.23053368
      107.43166       55.54573170        1.46695671
      107.53135       57.66716738        1.28972834
      107.63104       57.00094881        1.16754622
      107.73074       58.85232793        1.13827663
      107.83043       62.73035473        1.16048484
      107.93012       63.85874615        1.54897521
      108.02982       62.28679512        1.33889015
      108.12951       65.53063042        1.30611238
      108.22920       63.74912085        1.26750031
      108.32890       64.16495841        1.25952237
      108.42859       66.46287600        1.62703314
      108.52828       65.69416460        1.37208651
      108.62798       69.23552032        1.27740084
      108.72767       67.35927478        1.20928556
      108.82736       68.84052592        1.24951135
      108.92706       65.15306053        1.53933038
      109.02675       63.48405639        1.32921756
      109.12644       64.37768373        1.30647464
      109.22614       67.49965770        1.33897807
      109.32583       65.50186439        1.43721434
      109.42552       64.85852502        1.50849482
      109.52522       66.32280282        1.37630684
      109.62491       64.29384821        1.28882836
      109.72461       64.45674796        1.23376033
      109.82430       62.87330461        1.13818712
      109.92399       59.61566570        1.44084198
      110.02369       59.09000216        1.25615774
      110.12338       60.50883667        1.26292991
      110.22307       60.05006618        1.24869721
      110.32277       57.80196638        1.25092731
      110.42246       56.12347534        1.49864975
      110.52215       55.49750190        1.26217654
      110.62185       57.29957452        1.20878359
      110.72154       54.61258939        1.10087362
      110.82123       56.95555944        1.16116881
      110.92093       55.16903028        1.33280836
      111.02062       58.21095576        1.26494710
      111.12031       57.55554811        1.26716812
      111.22001       56.38707017        1.23069260
      111.31970       57.49088365        1.34870367
      111.41939       56.42952349        1.38260162
      111.51909       57.88019872        1.27063060
      111.61878       60.14901346        1.22028759
      111.71847       62.19387575        1.15455859
      111.81817       63.89484896        1.27019699
      111.91786       63.69901256        1.33466546
      112.01755       71.88185541        1.38480219
      112.11725       71.31031413        1.38970446
      112.21694       71.15544672        1.38195281
      112.31663       75.51870934        1.56908018
      112.41633       74.16551880        1.52750130
      112.51602       76.56950624        1.42937606
      112.61571       78.56547917        1.38126924
      112.71541       81.90675669        1.32923900
      112.81510       83.24384544        1.50262571
      112.91479       86.61116210        1.56148983
      113.01449       89.39633859        1.55363410
      113.11418       86.71559429        1.52490422
      113.21387       88.62072341        1.53465425
      113.31357       88.06037543        1.69892180
      113.41326       91.33777596        1.64452585
      113.51296       92.42254236        1.55614204
      113.61265       94.77686338        1.52065106
      113.71234       91.49409240        1.42694309
      113.81204       93.92652711        1.65648861
      113.91173       87.48254765        1.54877720
      114.01142       88.73903675        1.54421650
      114.11112       88.85831630        1.54444103
      114.21081       89.43770214        1.56070717
      114.31050       90.79498821        1.78336808
      114.41020       85.77507200        1.60144460
      114.50989       89.41145723        1.53085953
      114.60958       87.66869293        1.46683790
      114.70928       86.40000015        1.40439727
      114.80897       86.27472764        1.59168327
      114.90866       85.47293069        1.49424478
      115.00836       83.42136890        1.46919716
      115.10805       85.04596009        1.49159930
      115.20774       84.68848479        1.51096720
      115.30744       84.82554198        1.73627836
      115.40713       84.61192351        1.57065706
      115.50682       89.20242889        1.52276025
      115.60652       90.22884221        1.47606580
      115.70621       88.80133624        1.40726827
      115.80590       91.34200445        1.66516067
      115.90560       92.09148211        1.51546506
      116.00529       93.82203418        1.54679906
      116.10498       97.89459986        1.59675115
      116.20468      100.33317106        1.65377241
      116.30437      101.43472346        1.98226723
      116.40406      103.68318912        1.74563930
      116.50376      100.81947294        1.62651563
      116.60345      104.67320825        1.59110692
      116.70314      109.91203308        1.58126645
      116.80284      112.64650571        1.90225953
      116.90253      115.08255277        1.72972995
      117.00222      124.05606251        1.78225781
      117.10192      122.55761163        1.81882791
      117.20161      127.21812928        1.87595305
      117.30131      129.25957548        2.26290680
      117.40100      133.06908021        1.93051650
      117.50069      131.45418097        1.82226483
      117.60039      142.20954930        1.81453743
      117.70008      145.35735660        1.77742745
      117.79977      154.05338953        2.24293954
      117.89947      152.24608980        1.93826010
      117.99916      157.36963308        1.99446141
      118.09885      161.50244380        2.05866124
      118.19855      160.23128890        2.14761842
      118.29824      157.97855554        2.33756072
      118.39793      171.01670444        2.20917358
      118.49763      174.72239795        2.10738802
      118.59732      178.39831860        2.05619534
      118.69701      177.85167302        2.13869880
      118.79671      180.06471873        2.32380203
      118.89640      173.51157878        2.12632970
      118.99609      174.58069453        2.13066799
      119.09579      175.61718254        2.16197026
      119.19548      175.75537159        2.36324233
      119.29517      175.95670897        2.45665323
      119.39487      178.10874298        2.27225486
      119.49456      177.29124272        2.13631505
      119.59425      170.60084352        2.03470111
      119.69395      165.33719875        2.11286844
      119.79364      163.19576616        2.12128461
      119.89333      159.15948464        2.02718669
      119.99303      157.22003229        1.96702645
      120.09272      151.38561527        1.97377106
      120.19241      142.62083712        2.15271521
      120.29211      139.07504364        2.10385026
      120.39180      141.90712761        2.02769928
      120.49149      138.81356362        1.86499103
      120.59119      127.49663025        1.73413345
      120.69088      125.42164789        1.85141563
      120.79057      125.65773873        1.81338983
      120.89027      122.26128021        1.75589147
      120.98996      120.38053133        1.72882930
      121.08966      122.96438354        1.76052442
      121.18935      120.57406887        1.99813905
      121.28904      113.73995982        1.89103577
      121.38874      113.77403943        1.78851606
      121.48843      115.25362165        1.70030561
      121.58812      116.42046616        1.62991792
      121.68782      114.44805467        1.79018725
      121.78751      115.24010561        1.71181607
      121.88720      118.13726725        1.71121443
      121.98690      113.23803674        1.68761879
      122.08659      112.34725712        1.71457729
      122.18628      111.48858388        1.98133564
      122.28598      111.88145573        1.86653296
      122.38567      111.43342997        1.78403164
      122.48536      108.19279339        1.66266630
      122.58506      110.64589539        1.59260944
      122.68475      108.27526748        1.78512731
      122.78444      108.53905132        1.68295597
      122.88414      105.19840215        1.64259718
      122.98383      104.55715825        1.67109951
      123.08352      102.93388912        1.64380498
      123.18322      101.93449805        1.90780020
      123.28291      104.44800884        1.75530134
      123.38260      102.04062054        1.67472296
      123.48230      101.66554087        1.61112857
      123.58199      100.95465010        1.50056704
      123.68168       99.19821251        1.69723691
      123.78138       94.96529989        1.49800649
      123.88107       95.50222163        1.46752971
      123.98076       91.19342679        1.46034875
      124.08046       89.62818168        1.43242909
      124.18015       90.35572643        1.62792008
      124.27984       84.87098210        1.41327740
      124.37954       87.20326253        1.35192445
      124.47923       83.10604719        1.28825614
      124.57893       81.24591778        1.35696933
