        5.04651       59.17409856        2.62474247
        5.14621       53.20792508        2.39818799
        5.24590       54.75634510        2.39807603
        5.34559       58.80890387        2.27969371
        5.44529       56.16042627        2.42338442
        5.54498       50.78018030        1.93802723
        5.64467       52.69070333        1.95702493
        5.74437       53.38247085        1.77818429
        5.84406       54.47075417        1.81783783
        5.94375       53.04023828        1.79131438
        6.04345       51.93673079        1.72232892
        6.14314       50.81515201        1.55980337
        6.24283       52.76312982        1.64199950
        6.34253       53.60173149        1.57857230
        6.44222       50.96466697        1.62062619
        6.54191       51.54761620        1.54408153
        6.64161       51.92704476        1.46816106
        6.74130       51.50043027        1.46800141
        6.84099       50.42800928        1.44206476
        6.94069       52.11911359        1.48820945
        7.04038       51.12512420        1.36051467
        7.14007       48.98219287        1.32883492
        7.23977       49.48572125        1.31231873
        7.33946       49.45503968        1.33199217
        7.43915       53.65087977        1.36944515
        7.53885       50.71387829        1.30673318
        7.63854       51.11533442        1.25389753
        7.73823       50.60306625        1.29543239
        7.83793       49.56026525        1.24057543
        7.93762       49.93924924        1.29905466
        8.03732       49.94687980        1.16511567
        8.13701       52.09940198        1.18467521
        8.23670       48.77687004        1.16231652
        8.33640       49.05956845        1.16601163
        8.43609       47.84264897        1.20375154
        8.53578       51.11087917        1.15902157
        8.63548       49.68419079        1.12953991
        8.73517       50.18834651        1.11363870
        8.83486       50.06371814        1.11495887
        8.93456       50.13993503        1.11007939
        9.03425       50.85664949        1.08527463
        9.13394       49.71151133        1.07496329
        9.23364       50.97762807        1.10450996
        9.33333       50.91370080        1.12628852
        9.43302       50.20096742        1.11876543
        9.53272       49.87839497        1.07747652
        9.63241       48.24371084        1.08956241
        9.73210       49.74820575        1.10426187
        9.83180       47.16557806        1.12026613
        9.93149       49.90307255        1.14417973
       10.03118       48.29866717        1.08301626
       10.13088       49.39432119        1.06902873
       10.23057       52.09218176        1.14976620
       10.33026       50.05730597        1.16495038
       10.42996       49.86729699        1.14679848
       10.52965       50.94322047        1.12258023
       10.62934       50.97484230        1.12562774
       10.72904       52.93716044        1.16413422
       10.82873       51.09302955        1.13784042
       10.92842       52.56444890        1.17351416
       11.02812       51.23547901        1.10374444
       11.12781       52.75030784        1.16017639
       11.22750       52.93472496        1.17378904
       11.32720       49.68884769        1.16768767
       11.42689       52.61214286        1.15997749
       11.52658       53.64749224        1.15741787
       11.62628       58.02081246        1.21691734
       11.72597       56.90604275        1.23071941
       11.82567       58.72080373        1.28503681
       11.92536       60.87844215        1.22454911
       12.02505       64.04407621        1.26197168
       12.12475       67.61157711        1.29562664
       12.22444       72.29288978        1.42083304
       12.32413       81.77333948        1.53460256
       12.42383       91.35842969        1.53997692
       12.52352      100.67859360        1.60691422
       12.62321      118.24189989        1.79155482
       12.72291      134.05056742        1.85664512
       12.82260      155.14794727        2.17198033
       12.92229      172.74432616        2.08189061
       13.02199      201.16355737        2.22982404
       13.12168      226.12853655        2.40576317
       13.22137      260.38243198        2.66654662
       13.32107      290.70422190        2.90922722
       13.42076      318.93244692        2.93404561
       13.52045      348.24389775        3.10423624
       13.62015      354.09315820        3.03375806
       13.71984      341.48893641        3.10460744
       13.81953      312.19202052        3.01785417
       13.91923      280.32548898        2.68600887
       14.01892      225.34269055        2.34368680
       14.11861      171.59583297        2.13274776
       14.21831      139.96111926        1.92780429
       14.31800      110.35725147        1.80150915
       14.41769       87.28131528        1.54244815
       14.51739       74.72156631        1.39216915
       14.61708       61.77679876        1.26867893
       14.71677       56.77408357        1.23596907
       14.81647       55.02742884        1.27467177
       14.91616       53.73156992        1.15829226
       15.01585       49.22582499        1.12847860
       15.11555       48.75987199        1.13612500
       15.21524       50.06133315        1.18652982
       15.31493       48.65693941        1.19791798
       15.41463       47.38251511        1.14451492
       15.51432       48.83873389        1.12602357
       15.61402       47.27188262        1.13580342
       15.71371       44.75861445        1.09750927
       15.81340       48.53985008        1.18913874
       15.91310       48.34648903        1.15312276
       16.01279       47.77782705        1.09756912
       16.11248       48.01888391        1.12989225
       16.21218       48.57783388        1.16796581
       16.31187       46.80013902        1.14912710
       16.41156       50.77632181        1.17482411
       16.51126       49.16709822        1.17553825
       16.61095       48.99291975        1.13147103
       16.71064       51.76291548        1.19990416
       16.81034       50.85819618        1.19293322
       16.91003       53.47698739        1.18809234
       17.00972       54.62130139        1.15274672
       17.10942       58.25681355        1.25843308
       17.20911       59.28849120        1.28076917
       17.30880       66.78907342        1.37151172
       17.40850       71.55922544        1.41951721
       17.50819       73.71214724        1.39901870
       17.60788       74.21710880        1.44740169
       17.70758       73.92827978        1.45051868
       17.80727       72.04526521        1.44950987
       17.90696       71.02542627        1.34559074
       18.00666       69.67288999        1.35606312
       18.10635       62.32189825        1.24718118
       18.20604       57.78404672        1.31724105
       18.30574       57.52323644        1.25257985
       18.40543       58.57724677        1.23278002
       18.50512       56.50018469        1.24884819
       18.60482       55.89761792        1.22266357
       18.70451       49.94296407        1.22104881
       18.80420       51.74031477        1.16762142
       18.90390       50.26291639        1.13848606
       19.00359       49.33487417        1.09840688
       19.10328       49.96064801        1.16947447
       19.20298       49.94856845        1.20571801
       19.30267       47.46309480        1.12860076
       19.40237       47.42371054        1.11536294
       19.50206       47.78928636        1.14781869
       19.60175       44.71528232        1.09772032
       19.70145       45.59313073        1.16234150
       19.80114       46.94664137        1.11870828
       19.90083       47.04926012        1.08208691
       20.00053       47.05319909        1.10133330
       20.10022       46.36955847        1.10139691
       20.19991       47.36049452        1.19007286
       20.29961       48.86169850        1.14539246
       20.39930       51.16107886        1.20753681
       20.49899       53.43600807        1.21274928
       20.59869       50.43913616        1.19966732
       20.69838       50.34334912        1.24272042
       20.79807       53.53747057        1.22246763
       20.89777       55.62843961        1.21801006
       20.99746       56.65716370        1.24148764
       21.09715       57.30015063        1.31511144
       21.19685       57.82722765        1.31428452
       21.29654       60.39465358        1.31034730
       21.39623       60.18603264        1.30814115
       21.49593       55.59519694        1.23909087
       21.59562       53.45593071        1.24418161
       21.69531       53.45058238        1.29404844
       21.79501       48.96069796        1.13280722
       21.89470       47.19493427        1.08709865
       21.99439       47.83456554        1.14086805
       22.09409       46.37380316        1.12603879
       22.19378       46.75646959        1.20078276
       22.29347       46.67563678        1.11737196
       22.39317       46.63727578        1.14584558
       22.49286       44.62817760        1.11991766
       22.59255       48.15830993        1.17719347
       22.69225       47.22800770        1.22844733
       22.79194       47.22443671        1.10321825
       22.89163       50.18250408        1.11512608
       22.99133       52.92019273        1.17700910
       23.09102       57.28243874        1.27195231
       23.19072       58.77999655        1.29157881
       23.29041       58.94931415        1.27734084
       23.39010       62.46444029        1.32881218
       23.48980       61.03264222        1.31819687
       23.58949       60.67359679        1.33192198
       23.68918       56.31190705        1.34911224
       23.78888       53.23347155        1.16887553
       23.88857       50.25305293        1.15042362
       23.98826       46.75781415        1.13434308
       24.08796       47.20510126        1.11756646
       24.18765       45.62474008        1.17719948
       24.28734       45.78594647        1.12279394
       24.38704       44.75681537        1.12861649
       24.48673       45.20854026        1.13025922
       24.58642       45.59981023        1.17271555
       24.68612       42.51652869        1.13075553
       24.78581       45.28202032        1.07583590
       24.88550       45.83045294        1.08191092
       24.98520       44.71039856        1.10809297
       25.08489       48.42219391        1.17635143
       25.18458       47.68232485        1.19181993
       25.28428       48.50975767        1.15865850
       25.38397       47.77819329        1.14427344
       25.48366       49.92627285        1.17680009
       25.58336       54.44757409        1.28111376
       25.68305       61.04129881        1.33067686
       25.78274       67.13589060        1.31731077
       25.88244       82.42273618        1.49703269
       25.98213      104.21888040        1.69797570
       26.08182      130.05683733        1.94763219
       26.18152      157.37237276        2.19541170
       26.28121      181.71983759        2.23245155
       26.38090      195.53676486        2.33575497
       26.48060      201.70761315        2.43819927
       26.58029      188.80211364        2.46022544
       26.67998      167.73519913        2.18937308
       26.77968      136.51534183        1.95053143
       26.87937      111.28547034        1.73521827
       26.97907       86.49547570        1.51627450
       27.07876       78.23949156        1.55263070
       27.17845       73.18973400        1.43490655
       27.27815       76.91451557        1.43667620
       27.37784       78.52689217        1.50826541
       27.47753       84.65237916        1.54316726
       27.57723       88.18925923        1.65017674
       27.67692       85.72362445        1.58791512
       27.77661       79.02678068        1.45492704
       27.87631       70.38818872        1.34999049
       27.97600       62.05554900        1.29586428
       28.07569       58.02656980        1.32613067
       28.17539       54.16711297        1.22646749
       28.27508       51.44952363        1.19573446
       28.37477       51.44739757        1.22417141
       28.47447       50.61605783        1.20472189
       28.57416       51.21472163        1.31015688
       28.67385       51.09652433        1.16426906
       28.77355       54.92443266        1.18546304
       28.87324       56.85313987        1.23829729
       28.97293       57.62945177        1.24966249
       29.07263       58.70418371        1.37488902
       29.17232       59.61218292        1.26441337
       29.27201       57.95723738        1.26970407
       29.37171       55.13325895        1.27381921
       29.47140       52.54260774        1.22907588
       29.57109       50.22976718        1.27420825
       29.67079       47.20685413        1.12446223
       29.77048       47.26190976        1.12773072
       29.87017       48.28975364        1.11759414
       29.96987       47.40670315        1.16102917
       30.06956       46.24342548        1.18297764
       30.16925       48.57082772        1.14162516
       30.26895       49.85345593        1.16107133
       30.36864       49.47553492        1.17554818
       30.46833       53.16474490        1.23109433
       30.56803       52.88643965        1.29701858
       30.66772       58.24111848        1.26682888
       30.76742       59.07911252        1.25039123
       30.86711       59.99812356        1.28521608
       30.96680       65.44235695        1.35026837
       31.06650       61.47239552        1.37202021
       31.16619       61.87480119        1.29426698
       31.26588       60.16113315        1.26848345
       31.36558       56.70475030        1.24748743
       31.46527       57.65463678        1.30889773
       31.56496       61.24331437        1.37085148
       31.66466       63.19510498        1.30234760
       31.76435       74.24824190        1.41069435
       31.86404       79.95917325        1.44490472
       31.96374       89.74608242        1.56674397
       32.06343       87.13872069        1.59743495
       32.16312       84.58262056        1.47894211
       32.26282       82.96284480        1.50047799
       32.36251       77.10387029        1.50417716
       32.46220       73.05425564        1.49027211
       32.56190       66.51483297        1.44695318
       32.66159       60.86380329        1.31419348
       32.76128       61.45068237        1.29092520
       32.86098       59.10286356        1.28493447
       32.96067       60.56425521        1.31708884
       33.06036       58.24718738        1.31511111
       33.16006       56.37039480        1.21831950
       33.25975       54.08689637        1.23205902
       33.35944       57.31894951        1.27535551
       33.45914       54.85583662        1.29499641
       33.55883       59.32176314        1.35004152
       33.65852       60.94967352        1.27611393
       33.75822       65.97778539        1.32558937
       33.85791       73.02938847        1.40055497
       33.95760       80.62091027        1.51525921
       34.05730       92.81646534        1.61050452
       34.15699      104.93716587        1.68561077
       34.25668      117.92928319        1.78099774
       34.35638      143.68690758        2.01756178
       34.45607      178.85470635        2.37181175
       34.55577      223.18137542        2.52598226
       34.65546      289.19752247        2.75955491
       34.75515      370.34543024        3.18519946
       34.85485      439.05121895        3.44452846
       34.95454      452.72199880        3.60712967
       35.05423      450.23693875        3.72122233
       35.15393      383.42862505        3.22125395
       35.25362      309.50639060        2.93717239
       35.35331      238.24154814        2.64236347
       35.45301      176.68479913        2.37291594
       35.55270      134.21388401        2.01285271
       35.65239      101.18083564        1.68710782
       35.75209       86.72389610        1.55023354
       35.85178       79.64303222        1.48342401
       35.95147       75.04936245        1.47376168
       36.05117       64.80983622        1.34091987
       36.15086       67.71243393        1.31806705
       36.25055       60.32477514        1.29946815
       36.35025       59.44441288        1.31519006
       36.44994       58.48661799        1.33059511
       36.54963       55.34183772        1.24236894
       36.64933       54.17962466        1.21086445
       36.74902       55.70722756        1.24071416
       36.84871       52.67852513        1.19768381
       36.94841       53.40253229        1.30412706
       37.04810       51.10871991        1.12485346
       37.14779       52.53696889        1.16390694
       37.24749       50.54783515        1.17333645
       37.34718       48.79608347        1.18216098
       37.44687       48.42956287        1.26508035
       37.54657       47.69909815        1.14616291
       37.64626       48.85218473        1.15553330
       37.74595       48.46576592        1.13294302
       37.84565       47.14576889        1.18226399
       37.94534       49.40409203        1.23303456
       38.04503       47.14861535        1.08862562
       38.14473       48.24021796        1.11198948
       38.24442       49.02474560        1.14151433
       38.34412       51.90700577        1.22814314
       38.44381       49.19191112        1.29266001
       38.54350       51.38737207        1.17781621
       38.64320       51.52878480        1.17586668
       38.74289       52.89623342        1.20700659
       38.84258       54.50345987        1.22823857
       38.94228       58.57484816        1.33570047
       39.04197       58.76773382        1.20639378
       39.14166       64.71009746        1.31713167
       39.24136       69.69681286        1.36347041
       39.34105       70.62890777        1.42044882
       39.44074       74.25794382        1.58887778
       39.54044       71.13793852        1.39035079
       39.64013       68.81454017        1.36317772
       39.73982       67.03624169        1.35082993
       39.83952       62.06068489        1.29074024
       39.93921       58.97242018        1.33397794
       40.03890       56.26371312        1.19259474
       40.13860       56.47933702        1.19334556
       40.23829       54.97688601        1.21895487
       40.33798       57.05788374        1.28061514
       40.43768       54.26118733        1.30649411
       40.53737       55.58890800        1.22739795
       40.63706       56.30413504        1.26123626
       40.73676       58.35045507        1.28200387
       40.83645       60.05568039        1.31153687
       40.93614       63.82212356        1.37486889
       41.03584       67.11445330        1.32693318
       41.13553       77.06079726        1.42384670
       41.23522       92.69168640        1.60009652
       41.33492      114.37741001        1.86149256
       41.43461      132.38132337        2.06730649
       41.53430      152.41404446        2.07782065
       41.63400      181.79635482        2.32005729
       41.73369      200.90537905        2.38642301
       41.83338      206.28611503        2.48286197
       41.93308      209.56081231        2.48040559
       42.03277      213.28975501        2.28726559
       42.13247      232.76557382        2.51195263
       42.23216      281.43751541        2.76900116
       42.33185      345.20183250        3.29411141
       42.43155      422.99392172        3.59606211
       42.53124      497.67271415        3.77965398
       42.63093      563.94258249        4.03474534
       42.73063      588.07652473        4.13984750
       42.83032      571.08464755        4.15100201
       42.93001      524.97879588        3.82836699
       43.02971      431.63841899        3.27527103
       43.12940      330.37735077        2.92004610
       43.22909      238.64794385        2.60552387
       43.32879      180.02863617        2.38273996
       43.42848      132.55462613        1.99847648
       43.52817       97.45709941        1.63872159
       43.62787       78.74415682        1.46778663
       43.72756       71.48246102        1.43151583
       43.82725       65.54304539        1.43118019
       43.92695       62.10236192        1.26320975
       44.02664       57.57723031        1.21034435
       44.12633       57.60653622        1.25579560
       44.22603       56.69690646        1.29671223
       44.32572       57.65601346        1.37824314
       44.42541       55.72049042        1.29351686
       44.52511       55.87355127        1.26045917
       44.62480       58.13536185        1.30399697
       44.72449       59.15694791        1.27477322
       44.82419       61.82666711        1.46246657
       44.92388       66.98701739        1.26976937
       45.02357       74.59402634        1.35113735
       45.12327       85.19418787        1.48758469
       45.22296       99.43619803        1.64981332
       45.32265      117.50479719        1.98442836
       45.42235      138.58308670        1.96281767
       45.52204      171.65042433        2.16382817
       45.62174      204.88268967        2.40845296
       45.72143      242.79132791        2.62402993
       45.82112      257.90019303        2.96143937
       45.92082      271.05387619        2.57849339
       46.02051      264.90817233        2.60307330
       46.12020      245.24554394        2.51143261
       46.21990      221.66453068        2.50759874
       46.31959      190.94256268        2.51137118
       46.41928      158.79924538        2.11381543
       46.51898      126.59501494        1.89659816
       46.61867      103.08595316        1.70216383
       46.71836       81.27903928        1.54959507
       46.81806       74.51526950        1.53844494
       46.91775       63.09006153        1.23359001
       47.01744       60.32558323        1.23496981
       47.11714       60.45740275        1.26455901
       47.21683       64.43394523        1.34405207
       47.31652       73.01143964        1.56117925
       47.41622       82.38345420        1.56308489
       47.51591       96.82889105        1.69817031
       47.61560      111.00187144        1.80334527
       47.71530      133.17370102        1.99747105
       47.81499      145.03121390        2.13720248
       47.91468      172.05116901        2.03771028
       48.01438      190.08190030        2.14370315
       48.11407      195.86643080        2.25774616
       48.21376      195.49549911        2.35499533
       48.31346      182.26038123        2.35402990
       48.41315      164.61598034        2.08444256
       48.51284      140.44487904        1.98830270
       48.61254      114.83483079        1.78957773
       48.71223       96.28767251        1.66786374
       48.81192       81.97926524        1.53491112
       48.91162       67.16774041        1.24506376
       49.01131       58.75612076        1.20511146
       49.11100       55.47744269        1.21312681
       49.21070       51.33814072        1.22505300
       49.31039       51.74057772        1.26576413
       49.41009       49.95260369        1.17483982
       49.50978       49.92330003        1.19879763
       49.60947       48.15503919        1.18592066
       49.70917       47.33863402        1.21938931
       49.80886       48.97706374        1.20720028
       49.90855       47.64495802        1.08457310
       50.00825       49.90171974        1.13349629
       50.10794       49.84749745        1.15866063
       50.20763       49.01513437        1.20034765
       50.30733       53.97331617        1.31964264
       50.40702       52.86039082        1.22464330
       50.50671       55.58088385        1.25956979
       50.60641       54.66336425        1.25085914
       50.70610       55.92215766        1.30188078
       50.80579       57.16857043        1.29899577
       50.90549       55.62226551        1.15514446
       51.00518       55.64027790        1.16557529
       51.10487       55.05066494        1.19841980
       51.20457       53.94421034        1.26288981
       51.30426       56.39242729        1.28462338
       51.40395       55.82400383        1.22528510
       51.50365       58.02623585        1.26358520
       51.60334       57.90648918        1.28720425
       51.70303       56.99137957        1.35605106
       51.80273       61.84960523        1.29601914
       51.90242       62.32018504        1.21550121
       52.00211       62.72665833        1.22524302
       52.10181       59.94029291        1.23550785
       52.20150       61.92746956        1.38309822
       52.30119       62.24855913        1.33580177
       52.40089       61.24454361        1.30419181
       52.50058       61.50253082        1.33163814
       52.60027       61.13692057        1.34579093
       52.69997       59.89379108        1.45973079
       52.79966       60.04485163        1.22879427
       52.89935       62.71804042        1.21185837
       52.99905       67.92912438        1.28198223
       53.09874       80.23366361        1.43864973
       53.19844       93.42489760        1.77829263
       53.29813      106.53479910        1.68805101
       53.39782      125.85934804        1.89895261
       53.49752      142.25751899        2.02883232
       53.59721      150.72459877        2.08704601
       53.69690      158.70175423        2.35026689
       53.79660      161.38126008        1.98541031
       53.89629      159.72355245        1.95377357
       53.99598      149.89655345        1.93843334
       54.09568      132.85603668        1.90481298
       54.19537      124.25186148        2.00868964
       54.29506      110.46986611        1.73941325
       54.39476       97.55305722        1.64669053
       54.49445       96.70442549        1.64078232
       54.59414       90.51816651        1.61135157
       54.69384       84.51006723        1.66066381
       54.79353       82.52742934        1.40720416
       54.89322       80.95579791        1.38867302
       54.99292       77.65772150        1.39979032
       55.09261       74.13078829        1.42212464
       55.19230       68.12954866        1.46381512
       55.29200       63.08096531        1.31078973
       55.39169       62.46046558        1.34584292
       55.49138       57.37319858        1.28487998
       55.59108       57.40313583        1.32644791
       55.69077       57.40517527        1.36132106
       55.79046       57.56356238        1.19182461
       55.89016       56.33129239        1.17613105
       55.98985       58.72917546        1.20870257
       56.08954       61.98781033        1.28284723
       56.18924       62.32426927        1.38820264
       56.28893       69.24075599        1.33942433
       56.38862       79.81020140        1.48789749
       56.48832       89.71404617        1.60501887
       56.58801      100.17947004        1.74552281
       56.68770      110.43809682        1.89206590
       56.78740      114.83733558        1.65141122
       56.88709      115.12108509        1.66997465
       56.98679      109.26438945        1.62815869
       57.08648       96.81980835        1.62415015
       57.18617       87.61783323        1.59945284
       57.28587       77.29578529        1.40326708
       57.38556       70.71778347        1.42861571
       57.48525       63.03760475        1.37443725
       57.58495       58.73195894        1.35691723
       57.68464       55.16877032        1.32644073
       57.78433       53.28655763        1.14033765
       57.88403       52.00136577        1.13958373
       57.98372       51.04399917        1.14698485
       58.08341       52.21658435        1.25437220
       58.18311       51.63625225        1.27596416
       58.28280       53.88702477        1.22782742
       58.38249       52.93371794        1.27152247
       58.48219       50.72445687        1.27148395
       58.58188       52.85089540        1.31215365
       58.68157       53.06961513        1.28846671
       58.78127       54.08041553        1.13774813
       58.88096       54.28468665        1.12308401
       58.98065       54.33879634        1.16643047
       59.08035       54.52663771        1.24679714
       59.18004       59.85472464        1.32535629
       59.27973       60.21236962        1.25419364
       59.37943       63.82450498        1.33398487
       59.47912       65.97691494        1.41196711
       59.57881       72.16134303        1.54722478
       59.67851       78.09995958        1.50092848
       59.77820       80.99312216        1.40515979
       59.87789       93.30759212        1.50337194
       59.97759       96.67931081        1.60086578
       60.07728      104.40441187        1.80191930
       60.17697      107.36188325        1.74083224
       60.27667      109.68012796        1.71079948
       60.37636      106.31769668        1.71684201
       60.47605      104.32473471        1.77410704
       60.57575       99.64931057        1.90001609
       60.67544       96.75376634        1.60839142
       60.77514       85.64800173        1.43817502
       60.87483       76.94476806        1.33638858
       60.97452       71.65046292        1.35839522
       61.07422       68.49842399        1.49192349
       61.17391       67.07509429        1.27880287
       61.27360       68.07603385        1.33410436
       61.37330       64.17610703        1.34318246
       61.47299       67.91457435        1.44266600
       61.57268       66.82807919        1.62732960
       61.67238       70.17290518        1.35925591
       61.77207       69.04774797        1.31310739
       61.87176       71.80760681        1.32430168
       61.97146       70.55647299        1.36281790
       62.07115       67.88364219        1.51382330
       62.17084       67.95343204        1.32698171
       62.27054       65.98073571        1.36329888
       62.37023       63.19914981        1.38727050
       62.46992       60.96835342        1.40915658
       62.56962       62.21720833        1.59889110
       62.66931       62.29844871        1.28889749
       62.76900       66.11503103        1.29432646
       62.86870       73.28351135        1.33323883
       62.96839       79.85916460        1.43642105
       63.06808       89.38731942        1.69166911
       63.16778       96.85395709        1.56343310
       63.26747      111.25972049        1.73479752
       63.36716      117.74826798        1.85238947
       63.46686      128.91562919        1.99704376
       63.56655      141.47933843        2.22344254
       63.66624      151.80527656        1.95812772
       63.76594      165.28447424        1.98542800
       63.86563      183.39581200        2.08598502
       63.96532      185.71221338        2.19650788
       64.06502      181.81108081        2.32788837
       64.16471      178.33125655        2.13232249
       64.26440      160.56422143        2.10521606
       64.36410      140.99065002        2.01152075
       64.46379      126.95871792        2.01804239
       64.56349      109.03577095        1.90256363
       64.66318       93.44905465        1.54104931
       64.76287       76.03381969        1.37229555
       64.86257       65.75979568        1.27395926
       64.96226       60.17273265        1.27631458
       65.06195       57.81914424        1.35276740
       65.16165       53.26616022        1.17110319
       65.26134       56.43186877        1.23376358
       65.36103       52.89138000        1.24621221
       65.46073       54.20006114        1.30304408
       65.56042       55.11233481        1.37239946
       65.66011       55.87293700        1.20493597
       65.75981       56.40088181        1.19852589
       65.85950       59.36505266        1.22189197
       65.95919       60.77092772        1.29417347
       66.05889       63.10151123        1.36414607
       66.15858       69.10374882        1.35772979
       66.25827       77.98364089        1.49199509
       66.35797       90.55737434        1.67543515
       66.45766      100.78640007        1.87845550
       66.55735      115.36978569        2.00991851
       66.65705      131.09062382        1.90113813
       66.75674      142.66958116        1.93304933
       66.85643      158.46808520        2.01483383
       66.95613      167.75161062        2.15582238
       67.05582      169.30112079        2.18198303
       67.15551      168.86674453        2.07371005
       67.25521      162.92388742        2.13770665
       67.35490      143.54316539        2.11128700
       67.45459      133.62502467        2.14807101
       67.55429      118.35284833        1.93635236
       67.65398       99.90326572        1.59404222
       67.75367       86.72463398        1.47265162
       67.85337       77.78252414        1.41154471
       67.95306       75.88797729        1.49084664
       68.05275       73.72874338        1.39133597
       68.15245       83.01732124        1.46407903
       68.25214       91.10409888        1.62820710
       68.35184       96.52071382        1.74676058
       68.45153      105.33457038        2.00925213
       68.55122      116.38571775        1.81996527
       68.65092      121.28655875        1.73180670
       68.75061      129.00878309        1.80485014
       68.85030      124.56942788        1.80732461
       68.95000      126.40505366        2.06426498
       69.04969      121.01511701        1.70549692
       69.14938      112.22108973        1.68848738
       69.24908      101.14920414        1.71150997
       69.34877       86.89810094        1.64013215
       69.44846       80.92868785        1.83573911
       69.54816       72.09184451        1.35060245
       69.64785       64.35484222        1.25788338
       69.74754       57.85126997        1.20442080
       69.84724       53.77069451        1.19131297
       69.94693       51.33238155        1.31353901
       70.04662       48.38559986        1.04861543
       70.14632       47.42966513        1.07955687
       70.24601       48.29231406        1.16641684
       70.34570       48.75454535        1.24020617
       70.44540       47.47918803        1.44195229
       70.54509       48.61373487        1.14211617
       70.64478       48.31000072        1.13691128
       70.74448       48.25759478        1.15430281
       70.84417       47.89017744        1.19321714
       70.94386       50.89897277        1.35048009
       71.04356       49.50752755        1.10208377
       71.14325       49.67484399        1.14720042
       71.24294       56.09387981        1.28294833
       71.34264       55.23099714        1.34982167
       71.44233       56.11590990        1.51832124
       71.54202       55.58439505        1.23021246
       71.64172       52.60295719        1.16402707
       71.74141       51.53652948        1.13121726
       71.84110       50.88023348        1.16348111
       71.94080       51.50525183        1.27562272
       72.04049       53.41852586        1.09963350
       72.14019       52.04823625        1.13086810
       72.23988       52.99169462        1.19395545
       72.33957       50.33327675        1.29965118
       72.43927       51.22335798        1.44329519
       72.53896       52.43732400        1.17089332
       72.63865       54.81336623        1.17023537
       72.73835       54.85527111        1.14493718
       72.83804       55.18806900        1.21268759
       72.93773       59.94534026        1.34273723
       73.03743       63.94330314        1.20391731
       73.13712       62.52366980        1.25538596
       73.23681       68.63842248        1.38218259
       73.33651       69.82659194        1.53405928
       73.43620       63.45655166        1.58364579
       73.53589       67.44060652        1.31718787
       73.63559       65.50621635        1.27768814
       73.73528       66.34955632        1.28008187
       73.83497       65.79362018        1.35137372
       73.93467       64.37367205        1.40749090
       74.03436       66.53622404        1.26647122
       74.13405       64.90278243        1.30393367
       74.23375       62.55918192        1.33337630
       74.33344       61.50171332        1.45535126
       74.43313       59.27824106        1.48249617
       74.53283       58.37335842        1.24989600
       74.63252       61.62603305        1.27508431
       74.73221       65.47528238        1.30804678
       74.83191       67.13692944        1.40513405
       74.93160       69.50042185        1.44585939
       75.03129       73.46320996        1.32169751
       75.13099       79.09681234        1.42076234
       75.23068       87.47384949        1.55883632
       75.33037       95.38005761        1.78963597
       75.43007      104.15684212        1.89761273
       75.52976      116.02410858        1.74018002
       75.62945      125.44808685        1.80831213
       75.72915      136.97963565        1.88270118
       75.82884      145.06300644        2.08643619
       75.92854      147.77726754        1.97696021
       76.02823      158.31920963        1.91972137
       76.12792      155.44021453        1.98790151
       76.22762      157.47542687        2.11115057
       76.32731      154.13258819        2.35857570
       76.42700      149.12803559        2.18925458
       76.52670      142.77800918        1.97581135
       76.62639      130.05652121        1.86114008
       76.72608      120.75748895        1.76313350
       76.82578      112.63990306        1.96165250
       76.92547      109.38273932        1.54821133
       77.02516      110.40674582        1.61220999
       77.12486      113.31459303        1.71591735
       77.22455      120.99985040        1.88847697
       77.32424      125.91950225        2.36708881
       77.42394      134.11057657        1.95107372
       77.52363      141.26315374        1.93544842
       77.62332      146.94727297        1.96530478
       77.72302      155.28537729        2.02538652
       77.82271      160.24530100        2.41327365
       77.92240      162.10787754        1.85875186
       78.02210      159.73696114        1.99077983
       78.12179      158.40286930        2.11728742
       78.22148      146.82475696        2.15476365
       78.32118      140.39955710        2.44449653
       78.42087      127.64269627        1.83363836
       78.52056      118.44899540        1.82359027
       78.62026      105.92315309        1.71028749
       78.71995       93.21981672        1.60921117
       78.81964       89.00170878        1.75615814
       78.91934       82.85619597        1.31274624
       79.01903       71.84636860        1.33975463
       79.11872       66.33314254        1.33952584
       79.21842       65.85679167        1.42383716
       79.31811       62.47344390        1.56192776
       79.41780       61.88205663        1.26101025
       79.51750       62.89057718        1.29176940
       79.61719       60.60157662        1.27167270
       79.71689       61.90021919        1.33442953
       79.81658       60.45408795        1.39786381
       79.91627       62.22621757        1.20221702
       80.01597       62.83303433        1.24174112
       80.11566       62.10067184        1.29044987
       80.21535       64.44564608        1.40534848
       80.31505       63.89825587        1.66347933
       80.41474       65.05152361        1.28977920
       80.51443       68.31478134        1.31609428
       80.61413       70.58135854        1.38221527
       80.71382       74.07302607        1.46495196
       80.81351       80.37707349        1.71509357
       80.91321       83.47906287        1.28899495
       81.01290       96.08356796        1.49333030
       81.11259      114.26750918        1.75851126
       81.21229      125.46213528        1.99339531
       81.31198      141.68755548        2.36386560
       81.41167      155.27548872        1.93789084
       81.51137      181.74125615        2.15805592
       81.61106      205.90228297        2.39982011
       81.71075      223.09355126        2.58627899
       81.81045      231.56316684        2.79174465
       81.91014      261.70066959        2.28380026
       82.00983      282.67619009        2.53816897
       82.10953      298.77774147        2.92026422
       82.20922      311.13472800        3.31524362
       82.30891      325.30968343        3.55604645
       82.40861      325.58489326        2.89294064
       82.50830      317.82767894        2.85011729
       82.60799      321.52746594        3.08839848
       82.70769      322.75645910        3.36757856
       82.80738      318.82014115        3.19750510
       82.90707      297.80843110        2.50778501
       83.00677      286.76998373        2.62143756
       83.10646      266.31404935        2.97086967
       83.20615      259.84558235        3.26631687
       83.30585      234.12847741        2.93520416
       83.40554      217.84485398        2.35327351
       83.50524      188.29216383        2.13331638
       83.60493      171.68085225        2.24353642
       83.70462      147.90955808        2.34685076
       83.80432      136.50061157        1.96996131
       83.90401      114.98442796        1.51601566
       84.00370       95.74799627        1.44231566
       84.10340       82.66555407        1.60102690
       84.20309       75.57679090        1.85822081
       84.30278       72.31751881        1.47824377
       84.40248       67.43797859        1.25972231
       84.50217       66.98530292        1.23169941
       84.60186       62.89095957        1.34932681
       84.70156       63.23242789        1.77052294
       84.80125       63.32954164        1.23362008
       84.90094       62.99689006        1.10525591
       85.00064       63.58849761        1.14410180
       85.10033       66.16770990        1.38132858
       85.20002       65.15273078        2.35079350
       85.29972       65.23427418        1.24083755
       85.39941       65.78122783        1.27040816
       85.49910       64.96061925        1.22767332
       85.59880       67.17524143        1.40391810
       85.69849       67.85087825        2.53322349
       85.79818       65.22646664        1.17089118
       85.89788       65.05706887        1.14142306
       85.99757       65.83205107        1.17981200
       86.09726       65.66962693        1.35291862
       86.19696       62.85295882        2.54189676
       86.29665       63.19898586        1.20621841
       86.39634       62.88962664        1.22413185
       86.49604       61.99207954        1.19694721
       86.59573       60.37072993        1.25847121
       86.69542       59.88724207        2.62060634
       86.79512       57.96484483        1.07016301
       86.89481       57.86929121        1.05420907
       86.99451       55.45818993        1.06963600
       87.09420       52.68338398        1.16259467
       87.19389       58.16762557        2.89428072
       87.29359       54.19787112        1.13208287
       87.39328       51.91716183        1.12288692
       87.49297       49.27975031        1.06191983
       87.59267       50.15601440        1.09241980
       87.69236       51.26840640        3.30502014
       87.79205       50.53146593        1.02210131
       87.89175       49.34396432        1.00184669
       87.99144       50.98720229        1.06123965
       88.09113       49.12924532        1.10715574
       88.19083       51.36975480        5.99134611
       88.29052       52.64740179        1.15347718
       88.39021       49.22628964        1.12266970
       88.48991       50.73042497        1.09384032
       88.58960       49.94110592        1.05098748
       88.68929       51.93374162        8.30306907
       88.78899       50.45249440        1.01964858
       88.88868       50.39663430        0.99682481
       88.98837       51.68775940        1.05003463
       89.08807       48.72414970        1.04412588
       89.18776       42.16810237        7.90156600
       89.28745       48.99096870        1.06375367
       89.38715       54.19029549        1.13047603
       89.48684       54.48061152        1.10925791
       89.58653       54.04719115        1.08237276
       89.68623       56.01738547        8.93369805
       89.78592       59.47211419        1.10344713
       89.88561       64.34540754        1.12542459
       89.98531       64.02572404        1.15111415
       90.08500       73.00460412        1.27522295
       90.18469       79.03178231       11.06815323
       90.28439       75.97620383        1.32875090
       90.38408       83.93838681        1.42045132
       90.48377       87.13253832        1.42017467
       90.58347       93.18503396        1.44585581
       90.68316      104.59905061       11.93708220
       90.78286       96.92452406        1.41168404
       90.88255       98.11873319        1.38210451
       90.98224      102.84464566        1.46423848
       91.08194      100.42811991        1.49427779
       91.18163      119.28493538       13.00379939
       91.28132       99.33022799        1.53001212
       91.38102       97.26695479        1.55410617
       91.48071       98.31957884        1.52420952
       91.58040       90.56020782        1.41435785
       91.68010       85.75797840       10.41076799
       91.77979       83.23230448        1.30131131
       91.87948       79.13769234        1.24912842
       91.97918       72.79016230        1.24372253
       92.07887       71.33156696        1.28245512
       92.17856       71.80579229        9.78353131
       92.27826       70.81113547        1.31965165
       92.37795       71.62818702        1.35876771
       92.47764       69.83307769        1.27353281
       92.57734       72.95411193        1.26290251
       92.67703       90.36744903        9.12946372
       92.77672       76.01389612        1.24257787
       92.87642       81.65721933        1.26353330
       92.97611       89.38242556        1.38075426
       93.07580       92.45051170        1.60286898
       93.17550       95.07144722        3.05673153
       93.27519       96.29496886        1.50800851
       93.37488       97.68949317        1.47653922
       93.47458      100.81347248        1.51661995
       93.57427      103.40037732        1.77591655
       93.67396      104.08190540        2.40795394
       93.77366      101.91853675        1.47598903
       93.87335      103.14409341        1.41837049
       93.97304      100.46622518        1.45867411
       94.07274       93.88633730        1.83030534
       94.17243       94.77589891        2.09835080
       94.27212       89.65108907        1.51977002
       94.37182       89.15522372        1.47703849
       94.47151       88.56546006        1.40981062
       94.57121       85.21704043        1.82489223
       94.67090       79.67604869        1.78465468
       94.77059       77.95251595        1.37217019
       94.87029       74.14242498        1.21673079
       94.96998       67.66536511        1.17683210
       95.06967       62.93090089        1.30809912
       95.16937       66.34996122        1.83888458
       95.26906       62.60737410        1.37975869
       95.36875       60.38008589        1.22942396
       95.46845       61.65657667        1.19400962
       95.56814       59.37390670        1.34815853
       95.66783       56.96928896        1.48348239
       95.76753       57.47815165        1.23138315
       95.86722       55.58386951        1.02996385
       95.96691       54.42983377        1.05714097
       96.06661       52.53059781        1.33029432
       96.16630       53.66653551        1.43393690
       96.26599       50.77940171        1.25252308
       96.36569       53.67206164        1.15554791
       96.46538       47.58990960        1.04989384
       96.56507       49.20395305        1.31770945
       96.66477       47.73856393        1.26468365
       96.76446       46.74187979        1.11824556
       96.86415       47.85307475        0.98010201
       96.96385       49.14455639        1.02590801
       97.06354       49.30207010        1.38946677
       97.16323       48.25892506        1.31437174
       97.26293       50.83070577        1.26744291
       97.36262       49.83333854        1.16207993
       97.46231       49.77132596        1.06842536
       97.56201       50.01822504        1.36267556
       97.66170       53.45830435        1.26547999
       97.76139       51.83510592        1.13202007
       97.86109       53.92698753        1.04415561
       97.96078       55.80896054        1.08549435
       98.06047       54.27130860        1.48673515
       98.16017       55.95563881        1.34208423
       98.25986       57.08644367        1.29486906
       98.35956       58.63063776        1.23896366
       98.45925       58.35784813        1.15373941
       98.55894       62.94591263        1.56329712
       98.65864       61.55851180        1.32639888
       98.75833       64.39305935        1.26767924
       98.85802       67.11199759        1.20849882
       98.95772       69.16894825        1.21877753
       99.05741       71.73878916        1.72326130
       99.15710       71.43025590        1.47879296
       99.25680       74.52775198        1.46355968
       99.35649       80.13034149        1.44565636
       99.45618       81.78488667        1.36113656
       99.55588       84.35022354        1.84719759
       99.65557       86.21965558        1.54081112
       99.75526       87.26002694        1.45289184
       99.85496       86.51612359        1.37688678
       99.95465       87.00955389        1.35373937
      100.05434       88.56700161        1.94579862
      100.15404       88.41407099        1.63750900
      100.25373       86.53088179        1.60046931
      100.35342       86.33031802        1.59235413
      100.45312       86.04994196        1.45064966
      100.55281       85.50554231        1.89922370
      100.65250       81.16454688        1.50720624
      100.75220       82.09528730        1.40412675
      100.85189       77.65390500        1.30464663
      100.95158       76.44074925        1.25977768
      101.05128       79.82170230        1.83557357
      101.15097       75.39050997        1.47412141
      101.25066       74.54109564        1.44817775
      101.35036       76.22824717        1.47725795
      101.45005       75.12189798        1.37898856
      101.54974       74.81420100        1.71403696
      101.64944       76.83348611        1.41728793
      101.74913       76.03942156        1.32843583
      101.84882       78.65278937        1.31528052
      101.94852       78.53271478        1.38440796
      102.04821       81.10032203        1.69466898
      102.14791       82.82948415        1.54357535
      102.24760       87.86469144        1.57665321
      102.34729       84.54328861        1.54007510
      102.44699       84.55339278        1.56694548
      102.54668       88.22484817        1.67976206
      102.64637       85.86230959        1.47988725
      102.74607       89.01484828        1.43519675
      102.84576       89.74332664        1.41372992
      102.94545       94.14511162        1.64943825
      103.04515       91.87322587        1.72480349
      103.14484       87.37121572        1.57126550
      103.24453       83.99360907        1.51664705
      103.34423       86.40985738        1.52598418
      103.44392       83.04838577        1.62032854
      103.54361       87.33837395        1.61445025
      103.64331       85.74498197        1.45603099
      103.74300       86.91055512        1.39832268
      103.84269       86.33333905        1.36951848
      103.94239       85.46985211        1.63747665
      104.04208       81.61237919        1.54778489
      104.14177       80.61041948        1.49653150
      104.24147       83.90177915        1.52617773
      104.34116       81.52756260        1.51364312
      104.44085       80.87252287        1.71217158
      104.54055       79.60692136        1.53793820
      104.64024       80.14568701        1.45056456
      104.73993       77.63754256        1.36226966
      104.83963       74.88612996        1.28886960
      104.93932       71.74835363        1.52923669
      105.03901       70.79020316        1.43121812
      105.13871       73.79712851        1.40720200
      105.23840       67.86736709        1.34842639
      105.33809       69.23482517        1.37004892
      105.43779       66.40185787        1.56099739
      105.53748       66.45329182        1.40043196
      105.63717       62.11024745        1.24081530
      105.73687       58.55580675        1.14643405
      105.83656       58.62535987        1.11777728
      105.93626       57.33051038        1.40070813
      106.03595       59.32507052        1.29148480
      106.13564       52.82670769        1.17762497
      106.23534       55.46819928        1.22168139
      106.33503       51.52467784        1.18918299
      106.43472       49.85288718        1.38280848
      106.53442       49.81362286        1.20229801
      106.63411       52.32127167        1.11942037
      106.73380       51.27863528        1.05619036
      106.83350       51.68326859        1.04453352
      106.93319       53.40695169        1.37652495
      107.03288       54.33361066        1.23057244
      107.13258       52.62042964        1.17538865
      107.23227       56.57817224        1.23665025
      107.33196       54.09142932        1.20574368
      107.43166       56.35417922        1.47886244
      107.53135       54.91452561        1.25949326
      107.63104       59.70220013        1.19599633
      107.73074       58.64954593        1.13724896
      107.83043       61.54931246        1.15041461
      107.93012       67.46928414        1.59368562
      108.02982       63.61373412        1.35426265
      108.12951       63.84894762        1.29023767
      108.22920       65.06090098        1.28159629
      108.32890       67.56108341        1.29365144
      108.42859       68.03857115        1.64766386
      108.52828       69.07704207        1.40830513
      108.62798       71.44064280        1.29876063
      108.72767       71.28461480        1.24522577
      108.82736       72.69226847        1.28523070
      108.92706       69.79869702        1.59484756
      109.02675       70.65066741        1.40375558
      109.12644       68.81806252        1.35211152
      109.22614       68.49451448        1.34997545
      109.32583       67.80975983        1.46364654
      109.42552       70.60004845        1.57547174
      109.52522       67.76168863        1.39238087
      109.62491       68.23846903        1.32906257
      109.72461       66.93656170        1.25842216
      109.82430       63.59265332        1.14565856
      109.92399       63.17897351        1.48469473
      110.02369       63.38329627        1.30226833
      110.12338       59.58113851        1.25421028
      110.22307       58.91326338        1.23779825
      110.32277       57.93175996        1.25337625
      110.42246       57.45297400        1.51762626
      110.52215       56.78028604        1.27779794
      110.62185       56.82187102        1.20471325
      110.72154       54.14772974        1.09707050
      110.82123       53.28745987        1.12394260
      110.92093       55.48000894        1.33768379
      111.02062       54.75632374        1.22770691
      111.12031       55.38330061        1.24396232
      111.22001       56.09806333        1.22854121
      111.31970       57.33321100        1.34796350
      111.41939       57.53251206        1.39726177
      111.51909       56.33277752        1.25450268
      111.61878       57.99840312        1.19917729
      111.71847       61.30395567        1.14718395
      111.81817       65.27215198        1.28494148
      111.91786       64.45779168        1.34374101
      112.01755       64.91359854        1.31673858
      112.11725       70.13993241        1.37933925
      112.21694       71.78480928        1.38923281
      112.31663       74.24928086        1.55705702
      112.41633       73.70874970        1.52402839
      112.51602       77.38612413        1.43821053
      112.61571       81.07190396        1.40441579
      112.71541       81.20521788        1.32459838
      112.81510       86.92559244        1.53696659
      112.91479       89.17985762        1.58593140
      113.01449       89.93866479        1.55965994
      113.11418       88.78385126        1.54437266
      113.21387       88.99414788        1.53917815
      113.31357       92.31057076        1.74113807
      113.41326       91.15230613        1.64420511
      113.51296       91.77962290        1.55196917
      113.61265       91.20405512        1.49276156
      113.71234       92.99143478        1.43983896
      113.81204       91.26135006        1.63401705
      113.91173       92.18883919        1.59147107
      114.01142       87.80149410        1.53725906
      114.11112       88.46626039        1.54228528
      114.21081       86.12375443        1.53260986
      114.31050       85.37612999        1.73043459
      114.41020       84.34780713        1.58930098
      114.50989       84.75488307        1.49145335
      114.60958       83.83494231        1.43540195
      114.70928       78.43458157        1.33882878
      114.80897       81.52052131        1.54822992
      114.90866       77.56014014        1.42418270
      115.00836       77.09798870        1.41327344
      115.10805       78.29607483        1.43202973
      115.20774       78.69118951        1.45738438
      115.30744       79.32471195        1.68010356
      115.40713       81.66755040        1.54420559
      115.50682       78.87743734        1.43258927
      115.60652       78.06961863        1.37356167
      115.70621       81.65626688        1.35024483
      115.80590       82.57856406        1.58409211
      115.90560       87.39755559        1.47731726
      116.00529       90.41459236        1.51952640
      116.10498       90.49168359        1.53606195
      116.20468       95.83967555        1.61739822
      116.30437       94.71542357        1.91662043
      116.40406       98.14438950        1.69944809
      116.50376      100.31555729        1.62375971
      116.60345      101.28190524        1.56622822
      116.70314      109.84124614        1.58206061
      116.80284      117.83635316        1.94754942
      116.90253      118.17700363        1.75447035
      117.00222      128.11735639        1.81295049
      117.10192      132.45563419        1.89306655
      117.20161      139.20553752        1.96479159
      117.30131      138.77923926        2.34747387
      117.40100      145.70605223        2.02266589
      117.50069      148.95434112        1.94256333
      117.60039      156.98323591        1.90902085
      117.70008      160.83670057        1.87222918
      117.79977      170.53100700        2.36315085
      117.89947      173.81569697        2.07428564
      117.99916      172.03320323        2.08810102
      118.09885      171.81465541        2.12588384
      118.19855      170.36705754        2.21711249
      118.29824      182.90764072        2.51950629
      118.39793      179.11363656        2.26336759
      118.49763      182.95706977        2.15887237
      118.59732      183.28941779        2.08626316
      118.69701      184.72944607        2.18197724
      118.79671      183.76362233        2.34978368
      118.89640      184.42121428        2.19479781
      118.99609      177.35808614        2.14952581
      119.09579      176.89334458        2.17169426
      119.19548      179.17176321        2.38834950
      119.29517      175.12668306        2.45279869
      119.39487      174.87197089        2.25311214
      119.49456      169.15096390        2.08781916
      119.59425      159.60131151        1.96887881
      119.69395      155.79921346        2.05202558
      119.79364      150.27232766        2.03631812
      119.89333      147.41090086        1.95173921
      119.99303      145.78755545        1.89496335
      120.09272      141.95735305        1.91226583
      120.19241      135.81931110        2.10199047
      120.29211      128.72476058        2.02498721
      120.39180      130.19434020        1.94302219
      120.49149      127.17711847        1.78585729
      120.59119      124.86775801        1.71742168
      120.69088      119.85507052        1.81100590
      120.79057      121.31319803        1.78296636
      120.89027      119.07640831        1.73410880
      120.98996      117.94311125        1.71250548
      121.08966      116.73171779        1.71636924
      121.18935      114.32697545        1.94686945
      121.28904      119.22175123        1.93804251
      121.38874      115.33310055        1.80231584
      121.48843      116.22976806        1.70896093
      121.58812      113.31513876        1.60918751
      121.68782      116.19848216        1.80542742
      121.78751      116.30226969        1.72117263
      121.88720      117.84137612        1.71046504
      121.98690      116.06103904        1.71010714
      122.08659      117.53542123        1.75548909
      122.18628      111.77828969        1.98556901
      122.28598      116.19013405        1.90399493
      122.38567      113.06176302        1.79860774
      122.48536      114.22598059        1.71016999
      122.58506      110.66328602        1.59405277
      122.68475      108.66426848        1.78983476
      122.78444      111.42097531        1.70673525
      122.88414      110.16022166        1.68257176
      122.98383      104.57071126        1.67259130
      123.08352      101.70902933        1.63527731
      123.18322      102.58626197        1.91551722
      123.28291       99.96636965        1.71838107
      123.38260      102.36470497        1.67878746
      123.48230       97.55025775        1.57926160
      123.58199       97.65167505        1.47686579
      123.68168       96.07044960        1.67146432
      123.78138       91.93571183        1.47498155
      123.88107       91.87883451        1.44042976
      123.98076       87.35424571        1.43026926
      124.08046       87.78346046        1.41869360
      124.18015       87.00533813        1.59858834
      124.27984       85.80459374        1.42225338
      124.37954       85.70201959        1.34127646
      124.47923       84.27049472        1.29837800
      124.57893       76.33647637        1.31619482
