        5.04651       53.30946234        2.48919514
        5.14621       52.42243809        2.37885065
        5.24590       53.64811632        2.37209217
        5.34559       55.01087496        2.20316370
        5.44529       54.78316488        2.39185685
        5.54498       51.18209440        1.94447969
        5.64467       50.70236550        1.91839732
        5.74437       53.15224752        1.77321035
        5.84406       47.34302499        1.69323762
        5.94375       48.67694168        1.71470521
        6.04345       48.46984878        1.66259726
        6.14314       52.00654238        1.57705175
        6.24283       50.36522611        1.60310498
        6.34253       48.17618760        1.49531876
        6.44222       49.34258852        1.59352866
        6.54191       49.57598479        1.51320207
        6.64161       48.52271999        1.41815227
        6.74130       48.51869934        1.42382127
        6.84099       46.08882300        1.37754474
        6.94069       46.70358478        1.40761300
        7.04038       47.18767376        1.30606726
        7.14007       44.54950882        1.26628356
        7.23977       47.83170290        1.28931025
        7.33946       47.66766049        1.30679182
        7.43915       47.25909620        1.28418216
        7.53885       47.03912123        1.25754153
        7.63854       45.72954630        1.18502616
        7.73823       45.41801986        1.22627123
        7.83793       46.24933026        1.19752299
        7.93762       47.22868732        1.26238937
        8.03732       46.82200902        1.12724291
        8.13701       46.09695116        1.11340371
        8.23670       45.51479704        1.12193902
        8.33640       46.82875004        1.13838352
        8.43609       45.16601654        1.16874452
        8.53578       45.42828987        1.09178353
        8.63548       46.07352329        1.08689695
        8.73517       46.24019355        1.06811429
        8.83486       46.78563823        1.07703263
        8.93456       46.40858410        1.06716031
        9.03425       47.02827487        1.04282680
        9.13394       46.83902299        1.04267882
        9.23364       45.36597177        1.04108099
        9.33333       44.64092200        1.05372761
        9.43302       45.45820936        1.06375600
        9.53272       46.25966886        1.03686666
        9.63241       46.42096690        1.06803719
        9.73210       46.34730218        1.06504754
        9.83180       46.59365786        1.11272715
        9.93149       46.40573793        1.10252482
       10.03118       46.83874682        1.06579363
       10.13088       46.32584687        1.03452510
       10.23057       47.14466135        1.09292234
       10.33026       47.78299112        1.13736801
       10.42996       49.01022934        1.13614799
       10.52965       48.67857693        1.09656391
       10.62934       45.34471017        1.06076568
       10.72904       48.59964026        1.11454703
       10.82873       48.64898383        1.10949537
       10.92842       48.53317041        1.12674444
       11.02812       48.46709964        1.07272836
       11.12781       49.48034208        1.12280243
       11.22750       48.78663800        1.12598396
       11.32720       49.69462639        1.16701784
       11.42689       50.17260009        1.13195210
       11.52658       54.40642045        1.16487063
       11.62628       53.94426343        1.17247897
       11.72597       55.77778363        1.21763976
       11.82567       57.95298351        1.27576698
       11.92536       62.35098431        1.23855213
       12.02505       64.97908105        1.27038963
       12.12475       74.40419662        1.35861894
       12.22444       83.97972340        1.53104124
       12.32413       92.01600451        1.62743696
       12.42383      104.06181328        1.64325754
       12.52352      120.02660835        1.75462457
       12.62321      143.02060254        1.97082283
       12.72291      162.55085621        2.04526455
       12.82260      191.51156700        2.41468021
       12.92229      209.69221370        2.29527597
       13.02199      237.51276231        2.42447410
       13.12168      267.28712103        2.61766681
       13.22137      300.65605112        2.86757206
       13.32107      320.84951306        3.05763698
       13.42076      342.81242636        3.04252918
       13.52045      359.97127933        3.15539528
       13.62015      367.41048661        3.08978762
       13.71984      351.29011849        3.14796047
       13.81953      319.07070498        3.04975256
       13.91923      280.66168011        2.68597903
       14.01892      221.81357513        2.32352500
       14.11861      170.63536868        2.12536671
       14.21831      132.64002794        1.87504787
       14.31800      104.75160136        1.75370906
       14.41769       85.69086496        1.52728153
       14.51739       70.32003824        1.34948248
       14.61708       59.44103144        1.24357552
       14.71677       53.51038196        1.19902220
       14.81647       50.63690633        1.22180168
       14.91616       49.94663237        1.11589700
       15.01585       49.64940065        1.13262401
       15.11555       49.97864368        1.14955874
       15.21524       49.34387785        1.17722256
       15.31493       47.86643609        1.18736317
       15.41463       46.09786393        1.12812845
       15.51432       47.05516497        1.10450344
       15.61402       48.69438510        1.15209516
       15.71371       45.77248122        1.10920800
       15.81340       46.17218774        1.15894474
       15.91310       47.00113937        1.13619299
       16.01279       47.72970161        1.09632099
       16.11248       46.46258171        1.11066802
       16.21218       48.19983351        1.16266199
       16.31187       46.61264368        1.14609045
       16.41156       47.12668609        1.13095493
       16.51126       49.50957607        1.17889403
       16.61095       48.14370956        1.12087968
       16.71064       52.08015387        1.20282841
       16.81034       50.63682195        1.18957265
       16.91003       54.59272320        1.19971120
       17.00972       53.94117088        1.14479627
       17.10942       58.80883892        1.26360732
       17.20911       64.52663610        1.33555239
       17.30880       65.81449644        1.36056246
       17.40850       65.82433229        1.36031441
       17.50819       72.00140721        1.38173342
       17.60788       74.25096074        1.44682015
       17.70758       75.43784168        1.46440648
       17.80727       74.66663638        1.47484946
       17.90696       72.06534218        1.35459995
       18.00666       67.12365768        1.33006443
       18.10635       63.28302166        1.25601034
       18.20604       59.78274762        1.33907654
       18.30574       58.30010272        1.26024771
       18.40543       55.86851968        1.20306442
       18.50512       53.03161838        1.20899548
       18.60482       54.13845774        1.20243588
       18.70451       52.00675312        1.24532523
       18.80420       51.64131210        1.16576265
       18.90390       49.96211736        1.13434499
       19.00359       48.31926540        1.08631630
       19.10328       48.41485538        1.15045024
       19.20298       48.25865446        1.18432645
       19.30267       47.37775337        1.12686957
       19.40237       47.39325224        1.11429877
       19.50206       44.80426132        1.11057375
       19.60175       44.49243977        1.09428079
       19.70145       44.15212214        1.14304451
       19.80114       47.03958012        1.11911092
       19.90083       45.10751103        1.05878031
       20.00053       46.92175265        1.09909366
       20.10022       49.08652806        1.13259728
       20.19991       46.30152783        1.17590517
       20.29961       48.00544944        1.13456046
       20.39930       51.22244355        1.20749990
       20.49899       51.76809927        1.19284809
       20.59869       50.64966697        1.20141763
       20.69838       50.23176253        1.24055308
       20.79807       52.18398462        1.20609602
       20.89777       53.69710023        1.19584221
       20.99746       53.74136711        1.20823197
       21.09715       54.33711918        1.27971498
       21.19685       58.43836938        1.32040517
       21.29654       57.76276878        1.28055012
       21.39623       58.10617633        1.28443386
       21.49593       56.16569031        1.24467042
       21.59562       54.56059901        1.25622615
       21.69531       50.05526633        1.25133263
       21.79501       48.76818605        1.12985576
       21.89470       46.54089404        1.07883250
       21.99439       48.42769218        1.14721783
       22.09409       44.50074767        1.10229380
       22.19378       45.24697349        1.18043111
       22.29347       44.52643459        1.09057138
       22.39317       44.26653741        1.11554318
       22.49286       48.16342100        1.16283920
       22.59255       45.64798935        1.14527571
       22.69225       49.39330283        1.25559424
       22.79194       50.05424653        1.13518654
       22.89163       52.85614122        1.14383115
       22.99133       59.95393807        1.25230782
       23.09102       61.10254548        1.31302733
       23.19072       68.10583966        1.38984556
       23.29041       68.29064287        1.37441059
       23.39010       70.62285551        1.41244075
       23.48980       65.85560326        1.36865813
       23.58949       68.28584583        1.41249306
       23.68918       63.32355027        1.43009017
       23.78888       57.19752296        1.21101817
       23.88857       51.62359583        1.16532519
       23.98826       49.68142219        1.16865008
       24.08796       47.40600084        1.11924211
       24.18765       46.06170556        1.18209379
       24.28734       44.02493960        1.10022565
       24.38704       44.18085795        1.12059948
       24.48673       43.55785290        1.10866706
       24.58642       45.59664040        1.17193337
       24.68612       43.35007838        1.14109774
       24.78581       45.15115889        1.07359617
       24.88550       47.16887673        1.09695313
       24.98520       44.46322583        1.10431759
       25.08489       45.25153266        1.13634026
       25.18458       45.34892139        1.16146228
       25.28428       46.76260716        1.13681278
       25.38397       47.32206898        1.13806026
       25.48366       49.46308246        1.17056917
       25.58336       52.49607699        1.25706444
       25.68305       59.03159270        1.30766926
       25.78274       70.29124171        1.34721062
       25.88244       85.41708323        1.52318253
       25.98213      106.41736808        1.71484375
       26.08182      129.41295391        1.94154039
       26.18152      150.63940807        2.14608170
       26.28121      178.90907773        2.21351475
       26.38090      190.35617223        2.30274739
       26.48060      196.44444284        2.40423311
       26.58029      188.03581405        2.45362549
       26.67998      175.17459655        2.23657698
       26.77968      146.38209131        2.01921875
       26.87937      114.91689266        1.76241749
       26.97907       93.68044281        1.57739853
       27.07876       81.71661969        1.58594993
       27.17845       78.95158986        1.48967974
       27.27815       80.19004697        1.46619250
       27.37784       82.12871720        1.54169020
       27.47753       87.10647263        1.56452400
       27.57723       86.39396791        1.63216146
       27.67692       85.25726619        1.58256572
       27.77661       77.45304799        1.43937950
       27.87631       70.81944163        1.35328576
       27.97600       62.95261759        1.30441420
       28.07569       57.79392391        1.32262285
       28.17539       52.54629048        1.20714647
       28.27508       49.62305678        1.17350073
       28.37477       49.43987817        1.19920654
       28.47447       47.89247114        1.17100851
       28.57416       49.98371831        1.29344159
       28.67385       51.66427698        1.17000315
       28.77355       52.21435579        1.15500611
       28.87324       55.47882584        1.22240719
       28.97293       58.53842684        1.25872405
       29.07263       57.31913143        1.35764856
       29.17232       56.07396882        1.22538834
       29.27201       56.70681574        1.25508400
       29.37171       52.53087884        1.24249325
       29.47140       54.08476808        1.24626236
       29.57109       48.36340496        1.24943931
       29.67079       45.20372298        1.09957331
       29.77048       48.42077285        1.14079810
       29.87017       44.39075937        1.07070209
       29.96987       45.59866494        1.13788154
       30.06956       46.97916032        1.19162833
       30.16925       46.25357953        1.11326464
       30.26895       46.11025847        1.11577906
       30.36864       48.42429074        1.16221421
       30.46833       52.31657170        1.22042655
       30.56803       54.48318924        1.31569506
       30.66772       54.66215852        1.22635826
       30.76742       56.82228589        1.22540432
       30.86711       62.11511637        1.30696514
       30.96680       64.07192813        1.33514777
       31.06650       61.76818180        1.37446301
       31.16619       63.33460193        1.30868614
       31.26588       58.53741651        1.25038687
       31.36558       54.95395135        1.22722651
       31.46527       55.11252742        1.27879368
       31.56496       62.03319961        1.37883060
       31.66466       62.41379972        1.29341912
       31.76435       70.34183273        1.37202782
       31.86404       77.91648276        1.42532720
       31.96374       82.39412154        1.49986575
       32.06343       89.91936686        1.62185803
       32.16312       86.40004257        1.49389978
       32.26282       83.08204557        1.50061514
       32.36251       80.65525239        1.53764989
       32.46220       76.88104390        1.52804740
       32.56190       67.30935276        1.45469137
       32.66159       66.51467361        1.37325306
       32.76128       65.36186572        1.33071617
       32.86098       66.65781296        1.36409123
       32.96067       61.08968808        1.32197895
       33.06036       61.20534071        1.34738123
       33.16006       57.67980763        1.23166664
       33.25975       54.74017123        1.23872270
       33.35944       56.04194733        1.26021554
       33.45914       56.92681102        1.31847778
       33.55883       57.35277537        1.32651708
       33.65852       59.09640525        1.25568764
       33.75822       65.10544823        1.31592533
       33.85791       73.30158068        1.40229073
       33.95760       80.82979713        1.51627534
       34.05730       91.99086669        1.60226919
       34.15699      103.04032798        1.66914416
       34.25668      120.92845230        1.80255796
       34.35638      150.03589285        2.06081785
       34.45607      187.97310439        2.43077119
       34.55577      229.47988245        2.56033988
       34.65546      290.09353223        2.76219464
       34.75515      365.47473533        3.16169831
       34.85485      420.62000034        3.36724866
       34.95454      444.13975383        3.56953011
       35.05423      434.75346958        3.65248950
       35.15393      394.26276370        3.26564744
       35.25362      321.46229336        2.99274469
       35.35331      250.16226577        2.70709658
       35.45301      186.16146114        2.43500162
       35.55270      149.91991262        2.12720261
       35.65239      107.36515998        1.73718527
       35.75209       86.85120596        1.55040008
       35.85178       76.09833188        1.44894156
       35.95147       72.39863988        1.44645326
       36.05117       67.69317078        1.36969738
       36.15086       64.52286579        1.28569264
       36.25055       64.88325614        1.34703684
       36.35025       61.83163250        1.34060400
       36.44994       58.54879392        1.33046430
       36.54963       57.54030857        1.26610315
       36.64933       57.24648169        1.24401151
       36.74902       55.49956805        1.23760816
       36.84871       53.78482842        1.20947728
       36.94841       52.02510515        1.28632265
       37.04810       51.72611599        1.13093675
       37.14779       52.21673868        1.15960809
       37.24749       49.39242105        1.15906884
       37.34718       48.13189539        1.17331844
       37.44687       49.38847377        1.27677906
       37.54657       47.26559725        1.14020417
       37.64626       44.34689789        1.10009088
       37.74595       47.79597011        1.12434955
       37.84565       46.16049086        1.16906494
       37.94534       48.00876869        1.21466961
       38.04503       46.77262218        1.08357654
       38.14473       48.15745351        1.11032973
       38.24442       46.84940136        1.11511039
       38.34412       48.35102847        1.18443146
       38.44381       49.96692445        1.30201529
       38.54350       50.02643612        1.16132498
       38.64320       48.52060989        1.14018602
       38.74289       51.46246502        1.18972377
       38.84258       50.93087085        1.18640270
       38.94228       55.42481170        1.29832389
       39.04197       58.71955988        1.20513558
       39.14166       63.53812066        1.30427202
       39.24136       68.27879219        1.34860990
       39.34105       71.37695772        1.42708768
       39.44074       69.52198289        1.53615015
       39.54044       70.57578092        1.38394515
       39.64013       69.77562113        1.37184406
       39.73982       65.63577433        1.33573570
       39.83952       63.47430874        1.30459849
       39.93921       62.60780877        1.37378781
       40.03890       58.63732001        1.21682366
       40.13860       57.87646319        1.20731162
       40.23829       58.56491075        1.25746745
       40.33798       55.76038003        1.26511328
       40.43768       54.72685908        1.31128093
       40.53737       55.07757705        1.22094608
       40.63706       55.57323690        1.25219958
       40.73676       60.16507454        1.30104651
       40.83645       56.37901753        1.26978919
       40.93614       62.77108181        1.36258978
       41.03584       67.06170282        1.32557194
       41.13553       76.18248513        1.41477253
       41.23522       90.74733935        1.58211976
       41.33492      117.25737646        1.88378720
       41.43461      138.34820457        2.11249700
       41.53430      160.78437154        2.13339890
       41.63400      191.15469821        2.37831005
       41.73369      211.55494146        2.44823333
       41.83338      216.24708681        2.54139346
       41.93308      220.47030996        2.54352665
       42.03277      224.13741712        2.34412865
       42.13247      244.89762182        2.57606345
       42.23216      293.48979962        2.82709203
       42.33185      349.20222639        3.31154962
       42.43155      415.06147706        3.55902055
       42.53124      473.00975920        3.67944907
       42.63093      517.18235192        3.85535010
       42.73063      530.71963183        3.92272662
       42.83032      527.08914130        3.97950847
       42.93001      489.63871301        3.69054838
       43.02971      424.24448696        3.24427546
       43.12940      340.69783939        2.96452344
       43.22909      266.66195538        2.75517082
       43.32879      206.79540025        2.55452303
       43.42848      152.75981111        2.14555893
       43.52817      114.25332941        1.77425203
       43.62787       89.93654210        1.56826251
       43.72756       73.77881555        1.45352738
       43.82725       69.52923465        1.47333474
       43.92695       61.66218911        1.25791080
       44.02664       55.05738212        1.18271036
       44.12633       56.31139899        1.24075785
       44.22603       56.41435509        1.29264720
       44.32572       54.51267207        1.33915175
       44.42541       52.41780596        1.25365804
       44.52511       56.65681365        1.26849651
       44.62480       52.06608211        1.23301001
       44.72449       57.29815550        1.25371142
       44.82419       58.48896722        1.42137820
       44.92388       66.33003793        1.26270063
       45.02357       76.18587634        1.36469301
       45.12327       89.55881716        1.52448678
       45.22296      105.85891212        1.70157313
       45.32265      129.02998299        2.07900341
       45.42235      151.31406360        2.05062013
       45.52204      180.59935908        2.21881958
       45.62174      205.36835486        2.40983927
       45.72143      226.03596022        2.52881439
       45.82112      226.57324331        2.77100741
       45.92082      230.21064324        2.37145112
       46.02051      227.73686131        2.40892781
       46.12020      225.58335206        2.40550699
       46.21990      215.94822597        2.47301666
       46.31959      197.28422728        2.55170206
       46.41928      185.12031526        2.28295242
       46.51898      156.07926042        2.10675941
       46.61867      129.22264245        1.90631904
       46.71836      103.47444909        1.74867971
       46.81806       85.23843263        1.64500326
       46.91775       71.79803224        1.31554429
       47.01744       63.89937854        1.27038165
       47.11714       66.98350581        1.33052717
       47.21683       70.49714095        1.40528015
       47.31652       75.68140545        1.58861483
       47.41622       88.90364124        1.62311008
       47.51591      104.32474001        1.76202922
       47.61560      117.45227872        1.85425465
       47.71530      132.90100262        1.99415220
       47.81499      142.80594021        2.11924672
       47.91468      158.77242125        1.95536287
       48.01438      167.55497871        2.00983034
       48.11407      170.39998267        2.10267420
       48.21376      173.04914734        2.21255624
       48.31346      165.54383986        2.24076705
       48.41315      158.25295038        2.04202416
       48.51284      138.26730882        1.97143919
       48.61254      125.92857496        1.87357707
       48.71223      102.38855482        1.71917599
       48.81192       91.29427431        1.61927748
       48.91162       75.52475945        1.31980390
       49.01131       64.00656641        1.25724192
       49.11100       56.31694508        1.22153508
       49.21070       54.07003106        1.25655185
       49.31039       53.55497173        1.28703485
       49.41009       49.50881997        1.16885207
       49.50978       50.26518995        1.20214981
       49.60947       48.22687083        1.18605774
       49.70917       46.44342787        1.20700304
       49.80886       49.80413414        1.21661665
       49.90855       49.72273156        1.10735040
       50.00825       49.71166345        1.13061319
       50.10794       50.59171129        1.16657081
       50.20763       51.63723201        1.23137123
       50.30733       53.04845289        1.30741824
       50.40702       52.95571983        1.22497674
       50.50671       55.18137730        1.25422438
       50.60641       53.30493211        1.23437949
       50.70610       57.11075664        1.31486745
       50.80579       56.96658043        1.29587067
       50.90549       56.41647301        1.16265979
       51.00518       54.49673839        1.15276032
       51.10487       54.65945398        1.19338317
       51.20457       54.99056035        1.27432047
       51.30426       55.96011642        1.27886207
       51.40395       56.10288503        1.22757802
       51.50365       58.35606747        1.26638572
       51.60334       59.76039689        1.30690662
       51.70303       60.98436993        1.40206259
       51.80273       62.08363854        1.29765965
       51.90242       59.83990732        1.19021181
       52.00211       61.24021391        1.20981089
       52.10181       60.40682768        1.23954382
       52.20150       62.77878058        1.39173486
       52.30119       64.09730393        1.35472522
       52.40089       62.41630604        1.31583186
       52.50058       61.50093514        1.33077996
       52.60027       59.07236088        1.32194104
       52.69997       59.31622103        1.45172857
       52.79966       62.97451643        1.25774956
       52.89935       67.18715411        1.25369758
       52.99905       73.21528158        1.33033637
       53.09874       83.77640794        1.46932468
       53.19844       99.29195467        1.83250323
       53.29813      109.89115023        1.71355833
       53.39782      122.28197355        1.87035938
       53.49752      132.11770046        1.95326889
       53.59721      142.50603257        2.02749149
       53.69690      145.44405145        2.24750354
       53.79660      144.75841068        1.87810834
       53.89629      148.17461765        1.87987404
       53.99598      142.12929694        1.88584568
       54.09568      138.87495513        1.94666978
       54.19537      124.07448001        2.00598098
       54.29506      115.92291412        1.78104636
       54.39476      104.69322839        1.70524236
       54.49445       97.16855861        1.64370592
       54.59414       90.52570586        1.61040367
       54.69384       87.85344920        1.69232620
       54.79353       86.75475723        1.44209953
       54.89322       83.64208258        1.41076774
       54.99292       78.82070017        1.40940099
       55.09261       74.68974606        1.42660360
       55.19230       71.72265709        1.50116140
       55.29200       64.03476038        1.31987274
       55.39169       62.50660131        1.34549200
       55.49138       58.66233105        1.29847328
       55.59108       56.07426082        1.31011509
       55.69077       55.92535806        1.34274145
       55.79046       55.39018866        1.16828097
       55.89016       52.71989029        1.13694233
       55.98985       57.11098475        1.19111364
       56.08954       59.92886956        1.26047444
       56.18924       64.62060276        1.41276714
       56.28893       72.58236487        1.37066002
       56.38862       82.44339266        1.51142983
       56.48832       92.68860987        1.63055229
       56.58801      103.41589434        1.77257899
       56.68770      113.88266540        1.92036920
       56.78740      118.00838639        1.67318951
       56.88709      115.62145663        1.67257654
       56.98679      105.23996411        1.59666209
       57.08648       97.27040781        1.62692554
       57.18617       86.30867245        1.58638504
       57.28587       74.71786096        1.37867294
       57.38556       68.51152691        1.40515770
       57.48525       58.10112589        1.31846181
       57.58495       55.56381832        1.31883154
       57.68464       51.64278763        1.28238269
       57.78433       53.67569171        1.14378643
       57.88403       52.34877226        1.14267555
       57.98372       52.30850421        1.16042298
       58.08341       51.79717861        1.24851663
       58.18311       54.02783290        1.30446367
       58.28280       51.35316822        1.19774843
       58.38249       52.13171115        1.26102030
       58.48219       51.33995507        1.27839429
       58.58188       52.38173096        1.30546965
       58.68157       50.52449937        1.25628397
       58.78127       52.79474658        1.12338171
       58.88096       53.69290705        1.11621673
       58.98065       51.60292707        1.13585973
       59.08035       57.26670503        1.27705620
       59.18004       60.40118390        1.33057746
       59.27973       57.98064643        1.22985748
       59.37943       60.84315858        1.30149706
       59.47912       67.73227815        1.42981230
       59.57881       70.95104342        1.53316147
       59.67851       77.37327966        1.49294910
       59.77820       81.44263502        1.40818748
       59.87789       92.65400167        1.49711915
       59.97759      103.59486152        1.65649104
       60.07728      102.87545147        1.78745447
       60.17697      106.29527169        1.73100827
       60.27667      108.78968666        1.70271531
       60.37636      109.44608972        1.74101259
       60.47605      105.71319026        1.78483652
       60.57575      102.34798130        1.92454180
       60.67544       93.41275279        1.57919691
       60.77514       87.03141248        1.44890000
       60.87483       75.77996939        1.32534398
       60.97452       71.28876865        1.35409008
       61.07422       68.77503666        1.49400389
       61.17391       67.26620839        1.27982369
       61.27360       67.41355342        1.32672825
       61.37330       65.80289416        1.35931915
       61.47299       68.45388941        1.44749617
       61.57268       70.21103314        1.66715591
       61.67238       72.47552734        1.38061707
       61.77207       69.20766204        1.31380482
       61.87176       70.01282598        1.30673933
       61.97146       68.38941619        1.34077711
       62.07115       69.67056935        1.53274681
       62.17084       69.38490641        1.34010687
       62.27054       65.53221021        1.35777818
       62.37023       69.13521519        1.45034613
       62.46992       65.40773199        1.45886507
       62.56962       67.03532429        1.65887953
       62.66931       68.45060661        1.35048006
       62.76900       76.64047216        1.39318709
       62.86870       81.84797142        1.40852812
       62.96839       94.40784129        1.56160627
       63.06808       97.71737791        1.76814018
       63.16778      106.19072181        1.63656274
       63.26747      110.38954592        1.72686014
       63.36716      113.11390713        1.81413334
       63.46686      117.74824249        1.90664111
       63.56655      122.87724784        2.06947073
       63.66624      132.33823434        1.82587751
       63.76594      145.11411165        1.85786506
       63.86563      161.83886099        1.95685567
       63.96532      166.31101710        2.07590167
       64.06502      171.82122627        2.26082439
       64.16471      173.68589624        2.10270758
       64.26440      163.94201173        2.12616172
       64.36410      155.66632244        2.11337700
       64.46379      135.72636341        2.08589047
       64.56349      124.51781929        2.03297901
       64.66318      106.79622773        1.64716423
       64.76287       85.69419616        1.45644288
       64.86257       72.64215222        1.33844530
       64.96226       66.73647147        1.34358612
       65.06195       59.10582690        1.36693463
       65.16165       54.13793716        1.17993800
       65.26134       54.75965493        1.21450718
       65.36103       52.93586995        1.24595048
       65.46073       53.36298284        1.29208773
       65.56042       54.62308391        1.36540761
       65.66011       55.84509313        1.20387357
       65.75981       58.82026911        1.22329324
       65.85950       61.65405887        1.24454004
       65.95919       63.74768055        1.32479276
       66.05889       67.31195017        1.40824161
       66.15858       70.61831621        1.37173495
       66.25827       78.09181709        1.49209357
       66.35797       83.36580605        1.60611319
       66.45766       98.97887023        1.86024465
       66.55735      110.28563908        1.96354627
       66.65705      122.06461426        1.83278856
       66.75674      134.68650308        1.87648502
       66.85643      149.27325903        1.95365186
       66.95613      162.17935163        2.11797354
       67.05582      170.11124127        2.18588850
       67.15551      169.80132221        2.07820521
       67.25521      162.12254218        2.13104633
       67.35490      153.96992494        2.18604807
       67.45459      136.26807197        2.16804890
       67.55429      121.65823899        1.96219840
       67.65398      103.94082778        1.62514105
       67.75367       90.88945802        1.50686825
       67.85337       81.59244037        1.44498312
       67.95306       74.47773338        1.47592444
       68.05275       73.93163895        1.39238004
       68.15245       80.05556673        1.43666926
       68.25214       85.38937704        1.57500391
       68.35184       96.20172579        1.74275383
       68.45153      100.65283846        1.96253372
       68.55122      105.49453108        1.73096781
       68.65092      114.45293178        1.68085125
       68.75061      121.71288484        1.75152239
       68.85030      127.32104338        1.82620409
       68.95000      127.06213232        2.06837001
       69.04969      122.44900347        1.71457869
       69.14938      115.72284756        1.71376059
       69.24908      103.64144303        1.73152744
       69.34877       92.77976515        1.69401120
       69.44846       85.95710332        1.89105186
       69.54816       78.62132166        1.40987395
       69.64785       71.14819750        1.32209085
       69.74754       59.99291991        1.22582979
       69.84724       55.74133981        1.21226464
       69.94693       53.91796524        1.34548566
       70.04662       48.37691816        1.04785835
       70.14632       49.47464835        1.10196696
       70.24601       47.25356747        1.15303265
       70.34570       46.20330013        1.20644969
       70.44540       47.03870503        1.43431850
       70.54509       47.95480672        1.13360619
       70.64478       48.21301959        1.13504784
       70.74448       51.11498753        1.18735397
       70.84417       48.12447984        1.19538635
       70.94386       49.24896028        1.32749360
       71.04356       51.69081953        1.12549759
       71.14325       50.98199583        1.16151527
       71.24294       54.26678903        1.26100299
       71.34264       54.90375554        1.34495124
       71.44233       53.23810642        1.47779269
       71.54202       56.50951984        1.23966464
       71.64172       53.94508615        1.17809414
       71.74141       54.71921989        1.16501785
       71.84110       51.49409448        1.16976434
       71.94080       54.11419277        1.30682519
       72.04049       52.53137168        1.08974112
       72.14019       51.57129637        1.12494470
       72.23988       51.20867089        1.17288169
       72.33957       51.40208738        1.31259701
       72.43927       53.82578884        1.47870539
       72.53896       50.47405485        1.14795967
       72.63865       52.64941269        1.14609124
       72.73835       54.32076342        1.13860421
       72.83804       56.30073764        1.22412556
       72.93773       57.32070930        1.31206274
       73.03743       60.96866284        1.17471552
       73.13712       60.80549237        1.23716001
       73.23681       63.75447073        1.33103125
       73.33651       62.81670377        1.45374412
       73.43620       61.70818023        1.56059487
       73.53589       62.88683669        1.27093413
       73.63559       61.82830646        1.24035730
       73.73528       63.97215252        1.25604051
       73.83497       63.78540963        1.32965606
       73.93467       64.85015458        1.41182214
       74.03436       64.00875741        1.24128953
       74.13405       63.25443288        1.28638176
       74.23375       62.25685137        1.32929650
       74.33344       62.61677439        1.46761554
       74.43313       64.98827245        1.55158790
       74.53283       67.19347081        1.34057333
       74.63252       68.76169942        1.34637142
       74.73221       71.68486044        1.36810360
       74.83191       75.45579920        1.48914251
       74.93160       76.89143539        1.52023281
       75.03129       81.38302365        1.39062788
       75.13099       84.12212763        1.46453529
       75.23068       89.18554775        1.57311674
       75.33037       95.40467102        1.78874093
       75.43007       99.19902850        1.85041140
       75.52976      105.38679095        1.65682931
       75.62945      120.13593812        1.76816941
       75.72915      125.65146996        1.80132435
       75.82884      135.26767063        2.01280680
       75.92854      130.62625505        1.85641825
       76.02823      144.90738335        1.83459573
       76.12792      149.00524183        1.94465984
       76.22762      150.48350942        2.06195203
       76.32731      152.00549637        2.34060093
       76.42700      150.85132772        2.20061843
       76.52670      147.72991784        2.00886881
       76.62639      141.23401830        1.93900847
       76.72608      133.96690069        1.85675593
       76.82578      127.16447782        2.08404328
       76.92547      123.59131011        1.64548101
       77.02516      123.32509472        1.70362088
       77.12486      124.43948033        1.79774740
       77.22455      126.42921267        1.92953426
       77.32424      126.58297213        2.37188005
       77.42394      134.83694968        1.95517104
       77.52363      131.85097144        1.86806874
       77.62332      137.68435772        1.90054394
       77.72302      137.65918295        1.90460429
       77.82271      144.33874339        2.28765877
       77.92240      142.32785029        1.73936746
       78.02210      143.84474764        1.88692045
       78.12179      144.16673542        2.01763232
       78.22148      137.50206724        2.08324413
       78.32118      134.96747631        2.39478038
       78.42087      127.57746858        1.83201345
       78.52056      122.51299633        1.85370803
       78.62026      117.62366562        1.80188002
       78.71995      109.79333709        1.74632855
       78.81964      102.49368273        1.88427832
       78.91934       95.86065062        1.41176711
       79.01903       83.12380725        1.44073374
       79.11872       75.74223187        1.43094993
       79.21842       71.02056056        1.47793994
       79.31811       69.64208090        1.64848269
       79.41780       63.75430895        1.27922030
       79.51750       68.25130229        1.34510239
       79.61719       66.78511608        1.33442279
       79.71689       63.49333978        1.35071490
       79.81658       66.80090229        1.46881095
       79.91627       65.50769086        1.23287258
       80.01597       64.95730420        1.26185437
       80.11566       63.41285609        1.30324903
       80.21535       62.87148918        1.38712559
       80.31505       66.16473218        1.69179046
       80.41474       66.37047529        1.30202708
       80.51443       69.88070113        1.33032588
       80.61413       70.96423363        1.38510326
       80.71382       76.83517043        1.49121924
       80.81351       80.96306529        1.72028417
       80.91321       91.40180583        1.34830106
       81.01290      109.36001307        1.59290323
       81.11259      126.87824660        1.85266167
       81.21229      143.62319030        2.13281217
       81.31198      160.06422761        2.51252604
       81.41167      176.60726810        2.06696667
       81.51137      195.84416163        2.23992251
       81.61106      216.45353953        2.45990637
       81.71075      228.13977748        2.61419170
       81.81045      236.32406183        2.81900463
       81.91014      256.33752248        2.25844956
       82.00983      275.29995572        2.50263650
       82.10953      288.04557039        2.86449013
       82.20922      289.47166265        3.19336706
       82.30891      286.31957912        3.32957613
       82.40861      291.52330745        2.73251615
       82.50830      285.83683281        2.69820799
       82.60799      287.85454447        2.91699149
       82.70769      286.50282844        3.16687022
       82.80738      280.22762101        2.99187842
       82.90707      279.71704291        2.42738762
       83.00677      272.84977946        2.55419932
       83.10646      258.90070222        2.92665123
       83.20615      255.68250152        3.23755991
       83.30585      240.20922172        2.97184988
       83.40554      221.40253709        2.37122372
       83.50524      209.34432753        2.24965916
       83.60493      188.43298094        2.35034989
       83.70462      171.02902750        2.52406628
       83.80432      159.23455287        2.12804962
       83.90401      134.54214787        1.63997730
       84.00370      115.44985683        1.58386764
       84.10340       99.16446259        1.75344546
       84.20309       90.04394378        2.02804330
       84.30278       81.42941451        1.56812272
       84.40248       73.86279534        1.31783007
       84.50217       70.33254193        1.26145013
       84.60186       67.90323535        1.40142744
       84.70156       67.37078699        1.82665459
       84.80125       65.71540016        1.25595488
       84.90094       64.90910727        1.12127222
       85.00064       65.66478742        1.16198128
       85.10033       65.46701354        1.37309402
       85.20002       64.70844990        2.34124915
       85.29972       65.34699020        1.24113004
       85.39941       68.99470970        1.30039435
       85.49910       64.98560335        1.22713531
       85.59880       67.95941121        1.41123631
       85.69849       66.17775536        2.50006913
       85.79818       65.06986161        1.16874002
       85.89788       65.79756271        1.14720591
       85.99757       64.37103473        1.16585031
       86.09726       62.37559264        1.31756528
       86.19696       60.61921362        2.49454732
       86.29665       62.75677653        1.20121340
       86.39634       63.72727985        1.23151556
       86.49604       60.81395333        1.18472129
       86.59573       57.57312083        1.22806918
       86.69542       58.67065955        2.59210245
       86.79512       53.04088259        1.02287662
       86.89481       53.61233844        1.01390095
       86.99451       52.97887773        1.04470140
       87.09420       54.91505993        1.18630645
       87.19389       54.23775845        2.79264897
       87.29359       50.70298458        1.09414764
       87.39328       50.31861462        1.10470400
       87.49297       50.58224495        1.07523135
       87.59267       49.13200289        1.08048834
       87.69236       44.09057274        3.06222912
       87.79205       50.33488592        1.01945957
       87.89175       50.71761949        1.01510311
       87.99144       49.76112979        1.04769461
       88.09113       49.87071365        1.11480333
       88.19083       49.72891105        5.89081678
       88.29052       50.13137272        1.12476642
       88.39021       49.23783675        1.12209224
       88.48991       48.88402476        1.07300161
       88.58960       49.45434828        1.04517429
       88.68929       56.15156577        8.62948382
       88.78899       48.26582189        0.99660039
       88.88868       50.16130501        0.99385804
       88.98837       49.00164486        1.02164376
       89.08807       50.04725136        1.05758805
       89.18776       51.66445886        8.74354955
       89.28745       51.45054918        1.08953492
       89.38715       52.45560029        1.11146433
       89.48684       52.80464666        1.09130847
       89.58653       57.13844330        1.11231381
       89.68623       64.31597004        9.56933520
       89.78592       57.92720825        1.08827375
       89.88561       60.68070310        1.09207540
       89.98531       63.60427049        1.14657792
       90.08500       70.43756282        1.25169879
       90.18469       74.44557555       10.73370570
       90.28439       75.29597233        1.32192319
       90.38408       79.17963535        1.37849832
       90.48377       86.31064308        1.41252905
       90.58347       89.41126969        1.41519648
       90.68316       82.92155115       10.61362588
       90.78286       91.45396226        1.37013963
       90.88255       93.02186920        1.34464017
       90.98224       97.52436802        1.42469823
       91.08194       99.55352859        1.48677449
       91.18163      113.09190140       12.65102358
       91.28132       97.01479449        1.51099920
       91.38102       98.81170142        1.56549669
       91.48071       97.18589825        1.51438184
       91.58040       91.14873596        1.41808138
       91.68010       87.93020920       10.53595407
       91.77979       87.35841013        1.33252911
       91.87948       82.16459095        1.27212563
       91.97918       80.70109354        1.30910242
       92.07887       80.33765784        1.36058082
       92.17856       91.63740767       11.05302206
       92.27826       77.32865111        1.37849182
       92.37795       76.52401205        1.40379209
       92.47764       75.77298417        1.32603002
       92.57734       78.49551032        1.30941682
       92.67703       74.47875914        8.27826045
       92.77672       79.56390705        1.27061906
       92.87642       82.86992469        1.27213285
       92.97611       87.19614467        1.36279904
       93.07580       89.65813175        1.57732750
       93.17550       88.09546570        2.93987522
       93.27519       89.65206836        1.45380830
       93.37488       92.59520175        1.43636218
       93.47458      100.56372474        1.51377312
       93.57427       98.98909102        1.73625848
       93.67396       94.52213097        2.29249294
       93.77366       97.10615969        1.43957069
       93.87335       92.27493341        1.34020140
       93.97304       93.77698111        1.40805867
       94.07274       86.17219472        1.75192092
       94.17243       90.27760698        2.04633553
       94.27212       89.85947736        1.52058759
       94.37182       87.59567718        1.46306010
       94.47151       90.39623673        1.42350145
       94.57121       83.27617651        1.80273088
       94.67090       84.28765330        1.83471556
       94.77059       84.40841851        1.42728398
       94.87029       80.22341383        1.26511643
       94.96998       74.14054681        1.23135690
       95.06967       70.23955528        1.38145582
       95.16937       71.51704677        1.90828695
       95.26906       67.20459176        1.42884744
       95.36875       64.25135074        1.26759584
       95.46845       61.69759366        1.19365426
       95.56814       59.67383733        1.35072012
       95.66783       59.89340835        1.52027389
       95.76753       56.50923278        1.22014741
       95.86722       53.97380440        1.01423839
       95.96691       54.16895986        1.05392864
       96.06661       52.10513037        1.32403910
       96.16630       52.70223587        1.42004976
       96.26599       51.19246036        1.25683062
       96.36569       51.04466800        1.12609320
       96.46538       49.89948217        1.07447604
       96.56507       47.23270655        1.29013856
       96.66477       46.53615464        1.24781295
       96.76446       49.19153044        1.14654779
       96.86415       47.61330063        0.97701730
       96.96385       46.56173455        0.99786363
       97.06354       49.14389371        1.38635163
       97.16323       47.14925733        1.29830061
       97.26293       49.42195875        1.24890451
       97.36262       48.42765063        1.14479218
       97.46231       49.00451824        1.05946440
       97.56201       50.75128303        1.37179282
       97.66170       48.63182985        1.20603431
       97.76139       51.32253579        1.12567712
       97.86109       53.07639096        1.03520262
       97.96078       55.38819151        1.08069548
       98.06047       55.30123995        1.49988237
       98.16017       55.84052363        1.33985069
       98.25986       56.63267639        1.28887726
       98.35956       57.11654105        1.22202384
       98.45925       61.89636517        1.18760061
       98.55894       63.50867841        1.56930955
       98.65864       64.11268526        1.35290350
       98.75833       69.43757410        1.31580029
       98.85802       69.94201450        1.23306017
       98.95772       71.74641492        1.24060687
       99.05741       71.85517361        1.72357743
       99.15710       72.92496258        1.49332075
       99.25680       76.42335547        1.48121935
       99.35649       78.74473449        1.43212927
       99.45618       83.04331786        1.37076438
       99.55588       85.36623562        1.85718402
       99.65557       84.67418645        1.52589393
       99.75526       86.89851038        1.44894681
       99.85496       85.95874085        1.37155234
       99.95465       85.94463524        1.34453124
      100.05434       85.52084303        1.91063450
      100.15404       86.60777970        1.61957135
      100.25373       86.51608728        1.59932293
      100.35342       85.05420356        1.57947429
      100.45312       83.12187327        1.42470964
      100.55281       83.18340426        1.87192320
      100.65250       85.25093268        1.54392974
      100.75220       80.53345545        1.38975293
      100.85189       79.65717473        1.32062737
      100.95158       78.97445448        1.27979214
      101.05128       78.46106172        1.81862707
      101.15097       78.98967096        1.50813772
      101.25066       78.18006485        1.48235946
      101.35036       79.80560582        1.51076071
      101.45005       77.13674187        1.39657661
      101.54974       76.35533878        1.73060260
      101.64944       77.17832021        1.41958608
      101.74913       74.68883532        1.31569237
      101.84882       77.49937805        1.30472454
      101.94852       79.27994205        1.39013787
      102.04821       77.42086012        1.65452164
      102.14791       75.52857851        1.47267053
      102.24760       80.53015035        1.50807328
      102.34729       80.06157198        1.49751810
      102.44699       77.61638597        1.49997930
      102.54668       80.75439929        1.60563765
      102.64637       82.31195586        1.44787395
      102.74607       83.68020351        1.39038910
      102.84576       85.36936884        1.37776728
      102.94545       82.48355721        1.54230113
      103.04515       84.31253525        1.65082895
      103.14484       86.47107729        1.56211594
      103.24453       83.32818539        1.50963975
      103.34423       85.16247107        1.51390853
      103.44392       84.46776196        1.63316759
      103.54361       84.55709684        1.58737988
      103.64331       87.12339101        1.46683358
      103.74300       84.13974527        1.37485093
      103.84269       86.06901826        1.36654577
      103.94239       85.29291779        1.63473956
      104.04208       83.51473294        1.56483753
      104.14177       84.04975376        1.52734473
      104.24147       81.66705429        1.50464819
      104.34116       82.21498253        1.51908935
      104.44085       78.35136836        1.68406029
      104.54055       80.05456981        1.54130791
      104.64024       77.00637774        1.42081792
      104.73993       74.01293190        1.32908152
      104.83963       75.64659210        1.29461470
      104.93932       69.64301116        1.50557092
      105.03901       70.27482043        1.42507298
      105.13871       69.98360699        1.36931233
      105.23840       71.44541053        1.38281604
      105.33809       71.70988880        1.39356414
      105.43779       68.68836815        1.58677151
      105.53748       69.98008005        1.43638438
      105.63717       67.93717819        1.29716150
      105.73687       65.49140343        1.21195901
      105.83656       62.93174543        1.15754770
      105.93626       61.80782124        1.45368581
      106.03595       56.98853325        1.26489307
      106.13564       59.75190057        1.25195166
      106.23534       56.55126022        1.23281868
      106.33503       59.24350096        1.27469122
      106.43472       57.11459042        1.47954094
      106.53442       54.33996279        1.25514083
      106.63411       54.40231073        1.14082777
      106.73380       54.40271176        1.08732041
      106.83350       54.46713395        1.07172350
      106.93319       54.64510232        1.39157074
      107.03288       58.28591440        1.27391579
      107.13258       57.44359312        1.22750821
      107.23227       58.66092465        1.25850324
      107.33196       56.69343253        1.23373673
      107.43166       55.00603452        1.46007392
      107.53135       57.06206493        1.28317055
      107.63104       59.26130407        1.19080100
      107.73074       60.16039594        1.15113778
      107.83043       61.96676943        1.15359745
      107.93012       63.51943923        1.54514181
      108.02982       61.61078124        1.33183650
      108.12951       63.25079016        1.28334201
      108.22920       62.30583700        1.25325430
      108.32890       66.21253038        1.27980633
      108.42859       64.07325717        1.59769772
      108.52828       62.51952872        1.33863853
      108.62798       67.54174023        1.26185324
      108.72767       69.24463140        1.22641640
      108.82736       66.84625333        1.23143663
      108.92706       63.99810008        1.52586543
      109.02675       65.73518911        1.35295405
      109.12644       64.30809417        1.30602351
      109.22614       65.41791430        1.31833296
      109.32583       67.64021400        1.46088426
      109.42552       62.65424925        1.48281775
      109.52522       63.70939622        1.34906084
      109.62491       64.76539883        1.29382350
      109.72461       61.38002993        1.20406251
      109.82430       61.76863755        1.12832335
      109.92399       61.98775684        1.46964130
      110.02369       61.36191044        1.28043435
      110.12338       59.92156780        1.25700903
      110.22307       61.64005037        1.26544175
      110.32277       60.91998131        1.28461889
      110.42246       59.02887914        1.53741303
      110.52215       57.82088526        1.28868650
      110.62185       55.71697599        1.19214308
      110.72154       54.33463679        1.09827525
      110.82123       56.58570939        1.15760661
      110.92093       57.12290602        1.35656640
      111.02062       56.12378756        1.24221715
      111.12031       57.69778388        1.26899044
      111.22001       54.99858344        1.21562692
      111.31970       58.00939167        1.35506492
      111.41939       55.31154989        1.36905424
      111.51909       57.61096132        1.26791083
      111.61878       59.36268499        1.21249131
      111.71847       59.76209954        1.13188900
      111.81817       63.46492330        1.26614776
      111.91786       64.74523207        1.34589722
      112.01755       68.51428024        1.35208210
      112.11725       70.27810682        1.37983264
      112.21694       71.18599307        1.38252427
      112.31663       68.43743219        1.49362769
      112.41633       74.31937966        1.52939556
      112.51602       74.91079450        1.41400613
      112.61571       80.07101105        1.39479041
      112.71541       83.24490617        1.34038111
      112.81510       85.65748392        1.52468480
      112.91479       85.55779643        1.55221450
      113.01449       87.26905560        1.53522602
      113.11418       89.16863819        1.54676119
      113.21387       89.05993483        1.53878014
      113.31357       93.47249629        1.75102934
      113.41326       89.68494404        1.62980557
      113.51296       91.68482281        1.55018491
      113.61265       90.98615306        1.49002637
      113.71234       92.78842594        1.43735004
      113.81204       88.27577710        1.60588561
      113.91173       92.19971437        1.59056275
      114.01142       87.78607196        1.53615442
      114.11112       88.10496283        1.53814315
      114.21081       86.99102664        1.53938328
      114.31050       88.74519056        1.76334360
      114.41020       86.33044509        1.60696952
      114.50989       89.35235450        1.53065258
      114.60958       87.21582976        1.46331017
      114.70928       85.84856671        1.40015786
      114.80897       89.14949290        1.61846744
      114.90866       85.27130576        1.49276563
      115.00836       85.84138724        1.49077654
      115.10805       85.49414108        1.49584346
      115.20774       84.57299025        1.51022877
      115.30744       91.50433932        1.80411670
      115.40713       88.44877825        1.60640809
      115.50682       84.44895650        1.48167703
      115.60652       88.80279603        1.46457073
      115.70621       87.79809022        1.39952334
      115.80590       93.83962183        1.68825435
      115.90560       95.29385419        1.54206708
      116.00529       95.98709481        1.56497240
      116.10498       98.02137438        1.59810725
      116.20468       97.88208973        1.63362893
      116.30437      102.37674444        1.99190950
      116.40406      101.71284623        1.72919466
      116.50376      102.01562096        1.63652753
      116.60345      103.23467560        1.58036770
      116.70314      107.68389974        1.56534299
      116.80284      118.32841392        1.95041769
      116.90253      119.56422657        1.76371367
      117.00222      120.60187619        1.75740368
      117.10192      124.88585097        1.83653459
      117.20161      125.18027829        1.86110100
      117.30131      126.05651769        2.23488271
      117.40100      132.11414373        1.92389152
      117.50069      136.83481681        1.85990169
      117.60039      141.57948154        1.81082961
      117.70008      146.04084770        1.78199458
      117.79977      150.24748827        2.21520081
      117.89947      155.82832633        1.96156187
      117.99916      159.32964916        2.00737546
      118.09885      160.49597380        2.05256760
      118.19855      165.25633675        2.18184640
      118.29824      165.00639045        2.39004624
      118.39793      167.11240945        2.18394125
      118.49763      177.51537510        2.12478914
      118.59732      176.89606594        2.04781413
      118.69701      176.18252872        2.12893300
      118.79671      176.43246268        2.30040445
      118.89640      177.08807030        2.14882258
      118.99609      177.64777756        2.14995494
      119.09579      179.16450848        2.18439550
      119.19548      179.61134084        2.38981663
      119.29517      176.87181730        2.46359549
      119.39487      177.61077764        2.26948214
      119.49456      179.25288094        2.14867007
      119.59425      166.83262838        2.01223465
      119.69395      165.01547105        2.11120272
      119.79364      164.26961065        2.12875043
      119.89333      155.52680846        2.00405801
      119.99303      151.06883347        1.92812686
      120.09272      150.23520846        1.96656477
      120.19241      145.27915604        2.17331470
      120.29211      145.08534757        2.14970504
      120.39180      140.95112872        2.02118769
      120.49149      135.26158436        1.84110889
      120.59119      129.52089306        1.74831400
      120.69088      125.10267197        1.84940348
      120.79057      124.26900304        1.80360893
      120.89027      126.56580574        1.78715619
      120.98996      123.09229607        1.74870402
      121.08966      118.76911942        1.73031765
      121.18935      119.65486340        1.99083614
      121.28904      120.81627749        1.94984172
      121.38874      119.02854655        1.83004807
      121.48843      114.03404586        1.69154674
      121.58812      112.58072470        1.60291391
      121.68782      117.40534372        1.81371424
      121.78751      112.67184248        1.69281486
      121.88720      111.56228548        1.66285777
      121.98690      113.77098185        1.69195065
      122.08659      111.19507297        1.70603007
      122.18628      108.62945341        1.95595436
      122.28598      110.12580509        1.85208128
      122.38567      111.81114032        1.78742876
      122.48536      106.57115673        1.65039048
      122.58506      111.09023488        1.59614372
      122.68475      106.20399776        1.76819062
      122.78444      105.85231351        1.66216688
      122.88414      105.51412941        1.64540308
      122.98383      104.53690607        1.67126618
      123.08352      103.26060272        1.64675543
      123.18322      105.16094507        1.93835997
      123.28291      101.25916479        1.72844607
      123.38260      102.06778913        1.67527804
      123.48230      102.51542532        1.61821634
      123.58199       99.06242625        1.48663230
      123.68168       98.06627942        1.68779169
      123.78138       95.92810184        1.50592929
      123.88107       94.00051146        1.45615666
      123.98076       90.28186805        1.45327210
      124.08046       90.84213106        1.44244345
      124.18015       88.08637582        1.60753613
      124.27984       88.35467144        1.44245258
      124.37954       85.22300821        1.33665720
      124.47923       83.91942379        1.29483785
      124.57893       78.54111983        1.33432713
