        5.04651       55.07034839        2.53014439
        5.14621       50.76919945        2.34091737
        5.24590       53.79924577        2.37545817
        5.34559       53.19930349        2.16645865
        5.44529       49.12857374        2.26461734
        5.54498       50.93393143        1.93975485
        5.64467       49.15961955        1.88889472
        5.74437       47.52557924        1.67640788
        5.84406       52.64272449        1.78584129
        5.94375       50.10791466        1.73982494
        6.04345       50.11688528        1.69071784
        6.14314       49.05028294        1.53142286
        6.24283       49.78802804        1.59386985
        6.34253       47.58489399        1.48609211
        6.44222       50.40065567        1.61059319
        6.54191       49.48441597        1.51180833
        6.64161       47.61335402        1.40476418
        6.74130       50.65993257        1.45501891
        6.84099       48.59812244        1.41468166
        6.94069       49.67768257        1.45190102
        7.04038       50.35671856        1.34937027
        7.14007       46.64390127        1.29581101
        7.23977       47.14942325        1.28005880
        7.33946       49.22903522        1.32810285
        7.43915       49.11954826        1.30930929
        7.53885       48.29766758        1.27431777
        7.63854       48.15259447        1.21612744
        7.73823       48.17482619        1.26306989
        7.83793       48.43219220        1.22555915
        7.93762       50.47029174        1.30515045
        8.03732       49.37754743        1.15770798
        8.13701       49.83353177        1.15780989
        8.23670       47.79061377        1.14974559
        8.33640       45.92457724        1.12731093
        8.43609       47.52875539        1.19903192
        8.53578       45.25032484        1.08964274
        8.63548       46.61198394        1.09325722
        8.73517       46.19486272        1.06759544
        8.83486       45.54955751        1.06266995
        8.93456       48.86602975        1.09515177
        9.03425       47.57209542        1.04886546
        9.13394       44.99092976        1.02184139
        9.23364       46.27291442        1.05147603
        9.33333       48.41250200        1.09749095
        9.43302       46.80832404        1.07949525
        9.53272       47.54539623        1.05123116
        9.63241       47.58266248        1.08136946
        9.73210       48.10358389        1.08511315
        9.83180       46.90436373        1.11645011
        9.93149       48.44312629        1.12655516
       10.03118       46.41156389        1.06091285
       10.13088       48.84646887        1.06239784
       10.23057       47.80519966        1.10058447
       10.33026       46.49977017        1.12194809
       10.42996       49.14539380        1.13772598
       10.52965       46.86867101        1.07592323
       10.62934       44.92500556        1.05583596
       10.72904       48.79565938        1.11680700
       10.82873       48.23709107        1.10477927
       10.92842       48.93292194        1.13139810
       11.02812       48.63000399        1.07454239
       11.12781       48.77357464        1.11473370
       11.22750       50.19861641        1.14222563
       11.32720       50.95853640        1.18182523
       11.42689       51.60853842        1.14810118
       11.52658       53.29224611        1.15284319
       11.62628       54.42867217        1.17775883
       11.72597       56.68925225        1.22759514
       11.82567       57.56816060        1.27151476
       11.92536       62.93473650        1.24436970
       12.02505       64.79433749        1.26858191
       12.12475       73.18060300        1.34735147
       12.22444       80.66347100        1.50034154
       12.32413       92.88021904        1.63512118
       12.42383      100.45856268        1.61436273
       12.52352      118.28688629        1.74176631
       12.62321      134.70956539        1.91215781
       12.72291      157.53450502        2.01311766
       12.82260      183.08440765        2.36027544
       12.92229      199.08363485        2.23564863
       13.02199      230.35536134        2.38708408
       13.12168      258.19444039        2.57196055
       13.22137      286.99588513        2.80036263
       13.32107      310.22551432        3.00550172
       13.42076      337.64365802        3.01898430
       13.52045      353.94566385        3.12824296
       13.62015      362.17205196        3.06714627
       13.71984      344.20505540        3.11531037
       13.81953      321.59178953        3.06206277
       13.91923      276.20403780        2.66416760
       14.01892      222.78672399        2.32870934
       14.11861      172.69016015        2.13829175
       14.21831      133.34796698        1.88010313
       14.31800      111.15373470        1.80692230
       14.41769       87.06684676        1.53957873
       14.51739       71.98308643        1.36543492
       14.61708       61.07868044        1.26067030
       14.71677       56.59538473        1.23324273
       14.81647       51.82403567        1.23609991
       14.91616       48.96101324        1.10480028
       15.01585       50.59171093        1.14336666
       15.11555       48.93190435        1.13742202
       15.21524       46.65260186        1.14456730
       15.31493       48.94721514        1.20074621
       15.41463       46.25615528        1.13007691
       15.51432       45.75156497        1.08905322
       15.61402       45.98948764        1.11953957
       15.71371       47.29018911        1.12751463
       15.81340       46.66251867        1.16510954
       15.91310       46.70025167        1.13254529
       16.01279       48.34567538        1.10340329
       16.11248       47.29524663        1.12061583
       16.21218       47.04722091        1.14863676
       16.31187       46.74906666        1.14777893
       16.41156       46.86817619        1.12784541
       16.51126       48.09245720        1.16184881
       16.61095       50.16463084        1.14425185
       16.71064       51.55097430        1.19668693
       16.81034       50.66622762        1.18992652
       16.91003       53.88171385        1.19185058
       17.00972       54.18308111        1.14737724
       17.10942       56.94356211        1.24333246
       17.20911       60.36489698        1.29158402
       17.30880       65.30741929        1.35529510
       17.40850       67.85832895        1.38127896
       17.50819       73.28168851        1.39403514
       17.60788       74.48627799        1.44913183
       17.70758       76.45758548        1.47433284
       17.80727       76.73175307        1.49522368
       17.90696       71.91943126        1.35322925
       18.00666       64.83636952        1.30710930
       18.10635       65.12694228        1.27426808
       18.20604       59.35465587        1.33426155
       18.30574       56.83543742        1.24425993
       18.40543       54.15664094        1.18442517
       18.50512       53.26257324        1.21164251
       18.60482       52.39266614        1.18282414
       18.70451       53.03597168        1.25764072
       18.80420       50.47900996        1.15252881
       18.90390       51.30305132        1.14952791
       19.00359       48.91122251        1.09297975
       19.10328       48.58811319        1.15252100
       19.20298       48.01746668        1.18136041
       19.30267       47.52790361        1.12866669
       19.40237       46.30532337        1.10139946
       19.50206       47.31985583        1.14143352
       19.60175       45.80964998        1.11041924
       19.70145       47.75589624        1.18893657
       19.80114       45.09353771        1.09564898
       19.90083       47.04524913        1.08136333
       20.00053       45.98615718        1.08805158
       20.10022       48.11912616        1.12134971
       20.19991       47.66796424        1.19319526
       20.29961       50.01032295        1.15809864
       20.39930       48.07779926        1.16972501
       20.49899       50.18555865        1.17441570
       20.59869       51.01247231        1.20573565
       20.69838       53.47869573        1.28017368
       20.79807       52.73855240        1.21251889
       20.89777       53.67485684        1.19560088
       20.99746       55.47209626        1.22761560
       21.09715       60.03654903        1.34543479
       21.19685       61.24736120        1.35190907
       21.29654       58.69457539        1.29088773
       21.39623       57.79221192        1.28095275
       21.49593       56.24848546        1.24559874
       21.59562       53.55619038        1.24457305
       21.69531       50.38727849        1.25549814
       21.79501       50.83123187        1.15359737
       21.89470       46.36956044        1.07684498
       21.99439       47.61911541        1.13757476
       22.09409       46.28785546        1.12428719
       22.19378       45.05968125        1.17798492
       22.29347       46.06959839        1.10937567
       22.39317       46.87013911        1.14799303
       22.49286       44.77390922        1.12104818
       22.59255       47.93557983        1.17372376
       22.69225       47.25991905        1.22809446
       22.79194       50.76089296        1.14320699
       22.89163       52.02542690        1.13478077
       22.99133       55.70222765        1.20691348
       23.09102       60.87536715        1.31058169
       23.19072       61.64595689        1.32199726
       23.29041       67.71554236        1.36859181
       23.39010       67.39141308        1.37959987
       23.48980       64.67837341        1.35632203
       23.58949       63.41321360        1.36094013
       23.68918       63.23672700        1.42911380
       23.78888       56.79964605        1.20678925
       23.88857       51.42010787        1.16302498
       23.98826       49.82431840        1.17034259
       24.08796       46.27713686        1.10579851
       24.18765       45.14362517        1.17022332
       24.28734       43.26713092        1.09069290
       24.38704       43.58177180        1.11295928
       24.48673       42.91632714        1.10045433
       24.58642       46.23707414        1.18016881
       24.68612       45.91239869        1.17445069
       24.78581       44.71889539        1.06843493
       24.88550       45.59490381        1.07844256
       24.98520       44.70735726        1.10736146
       25.08489       44.95527597        1.13260952
       25.18458       45.45989307        1.16289417
       25.28428       44.94370256        1.11441982
       25.38397       47.56848548        1.14103637
       25.48366       50.72821032        1.18550472
       25.58336       53.52282365        1.26935177
       25.68305       60.49294085        1.32383244
       25.78274       69.24583163        1.33711384
       25.88244       86.71194389        1.53476350
       25.98213      106.41867587        1.71486482
       26.08182      128.04628202        1.93118057
       26.18152      152.15495500        2.15697779
       26.28121      177.09881834        2.20216188
       26.38090      193.67809114        2.32303652
       26.48060      195.65257367        2.39933074
       26.58029      185.59184813        2.43743487
       26.67998      169.35922261        2.19870571
       26.77968      146.51489304        2.02015617
       26.87937      110.34283010        1.72671978
       26.97907       91.06793733        1.55511496
       27.07876       79.79097045        1.56705555
       27.17845       74.36283557        1.44551631
       27.27815       78.13682692        1.44720462
       27.37784       81.73234703        1.53795340
       27.47753       84.66085591        1.54228153
       27.57723       85.57336933        1.62435463
       27.67692       82.07469080        1.55258269
       27.77661       80.62530749        1.46873301
       27.87631       70.03783752        1.34576843
       27.97600       62.86295395        1.30348879
       28.07569       56.34735800        1.30590697
       28.17539       52.62990698        1.20811751
       28.27508       48.95057702        1.16550162
       28.37477       49.54285877        1.20046654
       28.47447       48.30658159        1.17608465
       28.57416       48.59774980        1.27532850
       28.67385       51.52390459        1.16841398
       28.77355       55.18347825        1.18752277
       28.87324       57.78797324        1.24769657
       28.97293       58.17469539        1.25479899
       29.07263       58.36932834        1.37008854
       29.17232       55.59624998        1.22014429
       29.27201       55.34323621        1.23985025
       29.37171       54.28595456        1.26316464
       29.47140       52.49850499        1.22778931
       29.57109       50.46426533        1.27639039
       29.67079       46.75122912        1.11830419
       29.77048       47.50648175        1.12994688
       29.87017       46.43334569        1.09514414
       29.96987       46.73316217        1.15200297
       30.06956       45.45627746        1.17209948
       30.16925       45.88539867        1.10881737
       30.26895       47.20374235        1.12898207
       30.36864       47.84110650        1.15517794
       30.46833       48.29551371        1.17242891
       30.56803       51.64541993        1.28085252
       30.66772       55.11785025        1.23148674
       30.76742       59.55051699        1.25460558
       30.86711       62.66994396        1.31282290
       30.96680       64.70335096        1.34174855
       31.06650       62.35421555        1.38100476
       31.16619       62.74525144        1.30256396
       31.26588       59.62520598        1.26200731
       31.36558       57.73624408        1.25804088
       31.46527       55.73010006        1.28597443
       31.56496       60.22570217        1.35851605
       31.66466       65.83568995        1.32857061
       31.76435       69.12748037        1.36008339
       31.86404       78.41287909        1.42989399
       31.96374       86.62548419        1.53813470
       32.06343       87.58234085        1.60052134
       32.16312       87.56182739        1.50398077
       32.26282       85.78788411        1.52500995
       32.36251       77.08717202        1.50307394
       32.46220       74.46066274        1.50368309
       32.56190       68.79070581        1.47069744
       32.66159       65.68642208        1.36464485
       32.76128       63.42525409        1.31077264
       32.86098       64.48032500        1.34153146
       32.96067       62.30258554        1.33510317
       33.06036       60.85381579        1.34349800
       33.16006       57.84233594        1.23341530
       33.25975       56.39002353        1.25733226
       33.35944       57.47395362        1.27628693
       33.45914       58.70326853        1.33898391
       33.55883       57.92065401        1.33310298
       33.65852       61.78511962        1.28406442
       33.75822       65.10980443        1.31597761
       33.85791       73.45569414        1.40378028
       33.95760       81.53216527        1.52289582
       34.05730       91.08069019        1.59428164
       34.15699      103.09724790        1.66961864
       34.25668      122.36290339        1.81331965
       34.35638      149.13460858        2.05456642
       34.45607      186.18901021        2.41907222
       34.55577      229.23314900        2.55895659
       34.65546      297.47917917        2.79786843
       34.75515      364.45807712        3.15720597
       34.85485      427.12851177        3.39397905
       34.95454      448.92180125        3.58930499
       35.05423      429.03496296        3.62769821
       35.15393      387.37833046        3.23626277
       35.25362      315.00650142        2.96189762
       35.35331      243.62704081        2.67091190
       35.45301      178.27556180        2.38222800
       35.55270      143.06519840        2.07751722
       35.65239      104.48872993        1.71359415
       35.75209       90.05823534        1.57895290
       35.85178       78.63660494        1.47304870
       35.95147       73.59294791        1.45840520
       36.05117       68.53172966        1.37820403
       36.15086       63.45570843        1.27497604
       36.25055       61.50310390        1.31133195
       36.35025       59.03846061        1.30985314
       36.44994       59.00338576        1.33564894
       36.54963       58.65792911        1.27839809
       36.64933       58.90825390        1.26201974
       36.74902       58.27735666        1.26833343
       36.84871       53.66104961        1.20808687
       36.94841       53.40912821        1.30339189
       37.04810       52.66591061        1.14120908
       37.14779       50.25918684        1.13759270
       37.24749       49.86874878        1.16467099
       37.34718       49.33753859        1.18798037
       37.44687       48.20599592        1.26135704
       37.54657       48.41623946        1.15405325
       37.64626       47.86240121        1.14301167
       37.74595       47.13656806        1.11654763
       37.84565       45.69449026        1.16313700
       37.94534       46.06756909        1.18978495
       38.04503       49.22878725        1.11176644
       38.14473       49.58316040        1.12670908
       38.24442       49.39470978        1.14511124
       38.34412       49.19126182        1.19472122
       38.44381       49.72184793        1.29881506
       38.54350       50.01570113        1.16120704
       38.64320       48.21447080        1.13657804
       38.74289       50.61600131        1.17987083
       38.84258       52.93649626        1.20962993
       38.94228       55.89337000        1.30382982
       39.04197       58.22171692        1.20000225
       39.14166       64.28899262        1.31199882
       39.24136       66.97656920        1.33563450
       39.34105       70.48979340        1.41815551
       39.44074       71.55775289        1.55860013
       39.54044       73.90818177        1.41641615
       39.64013       68.90581432        1.36323330
       39.73982       66.87469395        1.34835027
       39.83952       63.51867897        1.30506441
       39.93921       62.93003075        1.37734255
       40.03890       58.29710932        1.21328144
       40.13860       58.78821969        1.21683067
       40.23829       57.37678340        1.24460228
       40.33798       56.56752109        1.27428078
       40.43768       55.13929613        1.31623992
       40.53737       55.65608286        1.22737394
       40.63706       55.61398233        1.25266801
       40.73676       56.58822878        1.26162878
       40.83645       61.33988576        1.32471634
       40.93614       64.86447929        1.38523499
       41.03584       67.57960115        1.33071300
       41.13553       76.78535646        1.42039822
       41.23522       93.16834710        1.60323135
       41.33492      111.93306346        1.84018920
       41.43461      138.99111961        2.11746034
       41.53430      157.40611377        2.11063083
       41.63400      188.82349625        2.36358541
       41.73369      206.55444101        2.41871908
       41.83338      212.67041891        2.51999009
       41.93308      216.30609978        2.51904114
       42.03277      218.10316323        2.31188707
       42.13247      240.44771845        2.55217254
       42.23216      294.29927292        2.83108448
       42.33185      350.76210178        3.31913626
       42.43155      415.20062874        3.55965536
       42.53124      482.15688631        3.71604032
       42.63093      531.87030263        3.91169465
       42.73063      547.92572052        3.98816801
       42.83032      533.93751289        4.00623638
       42.93001      497.22849924        3.72002841
       43.02971      425.28770305        3.24839758
       43.12940      335.83997594        2.94283647
       43.22909      256.82018156        2.70294232
       43.32879      196.46714286        2.48903254
       43.42848      151.42503666        2.13607792
       43.52817      109.07024554        1.73323594
       43.62787       87.14817330        1.54361824
       43.72756       71.17715274        1.42754754
       43.82725       65.33554499        1.42800923
       43.92695       61.86703987        1.26001535
       44.02664       58.28388535        1.21701768
       44.12633       56.50772564        1.24293509
       44.22603       54.43648403        1.26970441
       44.32572       56.31708003        1.36122961
       44.42541       55.89865769        1.29478088
       44.52511       55.68797147        1.25756876
       44.62480       55.71363465        1.27564070
       44.72449       57.22558065        1.25292165
       44.82419       59.79254392        1.43720522
       44.92388       67.39485636        1.27285104
       45.02357       73.95232382        1.34444232
       45.12327       85.99222393        1.49364465
       45.22296      102.49170866        1.67410457
       45.32265      125.88904256        2.05332966
       45.42235      147.37263588        2.02346981
       45.52204      176.94077685        2.19596288
       45.62174      204.24700079        2.40317176
       45.72143      225.08655465        2.52342984
       45.82112      240.93002644        2.85889622
       45.92082      240.33460384        2.42390285
       46.02051      240.97865329        2.47912886
       46.12020      229.77985213        2.42814789
       46.21990      213.99052314        2.46162845
       46.31959      191.28978811        2.51212638
       46.41928      175.30950920        2.22088668
       46.51898      148.72826661        2.05603280
       46.61867      117.33311652        1.81575892
       46.71836       99.71537049        1.71640625
       46.81806       81.62960303        1.60960913
       46.91775       69.59127959        1.29507685
       47.01744       62.07459211        1.25203821
       47.11714       66.22187609        1.32291385
       47.21683       67.97493007        1.37979844
       47.31652       76.60116378        1.59830039
       47.41622       87.44858898        1.60970037
       47.51591      102.86527214        1.74958173
       47.61560      113.12128709        1.81948084
       47.71530      133.84404914        2.00129310
       47.81499      147.83468714        2.15663004
       47.91468      159.13792922        1.95764920
       48.01438      176.73848241        2.06484893
       48.11407      182.81887117        2.17890730
       48.21376      179.38511922        2.25320937
       48.31346      170.92506069        2.27733744
       48.41315      162.38154438        2.06880065
       48.51284      142.58056081        2.00226718
       48.61254      121.03701728        1.83652434
       48.71223      104.35608662        1.73574600
       48.81192       87.95774812        1.58923559
       48.91162       73.16044637        1.29888122
       49.01131       60.96055731        1.22683775
       49.11100       58.62971024        1.24647425
       49.21070       53.09383043        1.24512185
       49.31039       52.15307891        1.27002302
       49.41009       52.01492204        1.19818328
       49.50978       49.01887479        1.18710786
       49.60947       47.98660730        1.18309685
       49.70917       47.57414520        1.22166378
       49.80886       48.09113143        1.19544609
       49.90855       48.52995886        1.09394866
       50.00825       50.00162914        1.13392433
       50.10794       49.60319919        1.15508460
       50.20763       51.20900394        1.22624371
       50.30733       52.05482034        1.29507854
       50.40702       53.77917268        1.23450747
       50.50671       56.08968932        1.26455302
       50.60641       55.92738638        1.26450352
       50.70610       55.96276043        1.30154047
       50.80579       58.31405173        1.31117743
       50.90549       56.54384355        1.16398385
       51.00518       57.57638442        1.18502014
       51.10487       54.20064967        1.18835213
       51.20457       57.20654188        1.29985226
       51.30426       58.85113975        1.31162210
       51.40395       57.59952365        1.24391729
       51.50365       56.00273817        1.24049290
       51.60334       60.77304521        1.31798803
       51.70303       61.06309642        1.40297975
       51.80273       59.55142280        1.27081468
       51.90242       59.51339891        1.18695387
       52.00211       62.98168967        1.22697462
       52.10181       62.25276572        1.25843006
       52.20150       63.69013135        1.40185383
       52.30119       63.11942211        1.34431346
       52.40089       62.12742260        1.31277796
       52.50058       59.90614964        1.31334663
       52.60027       61.38296448        1.34766468
       52.69997       59.67781163        1.45617416
       52.79966       59.74166022        1.22490840
       52.89935       65.27383265        1.23564190
       52.99905       73.65231773        1.33432966
       53.09874       87.01750111        1.49765695
       53.19844       96.61220544        1.80744667
       53.29813      110.87616912        1.72129101
       53.39782      122.14841369        1.86934031
       53.49752      135.52046531        1.97851064
       53.59721      142.87541937        2.03015610
       53.69690      152.65232375        2.30311866
       53.79660      152.10795047        1.92570185
       53.89629      151.68018963        1.90222635
       53.99598      149.26433883        1.93309631
       54.09568      135.99316072        1.92618351
       54.19537      124.92603689        2.01292536
       54.29506      113.53044796        1.76243436
       54.39476       98.54843609        1.65409568
       54.49445       98.27203530        1.65308695
       54.59414       90.99901379        1.61464484
       54.69384       86.33346365        1.67754315
       54.79353       87.13806149        1.44531010
       54.89322       81.73654413        1.39452015
       54.99292       79.13236721        1.41220882
       55.09261       74.67129978        1.42643521
       55.19230       69.96891054        1.48261235
       55.29200       66.69710739        1.34716573
       55.39169       62.59659090        1.34647269
       55.49138       57.80191320        1.28888438
       55.59108       58.82475145        1.34199981
       55.69077       57.71676459        1.36417178
       55.79046       58.14519864        1.19710601
       55.89016       55.49670966        1.16662143
       55.98985       57.94927256        1.19986628
       56.08954       59.47574270        1.25568777
       56.18924       63.24359317        1.39757445
       56.28893       69.96426864        1.34559691
       56.38862       82.21175161        1.50930194
       56.48832       93.44636449        1.63725741
       56.58801      104.10956799        1.77856810
       56.68770      112.46659081        1.90830925
       56.78740      115.31035682        1.65380538
       56.88709      119.21856213        1.69861973
       56.98679      106.16779062        1.60374698
       57.08648       96.03068175        1.61646406
       57.18617       88.77978001        1.60908429
       57.28587       74.06082872        1.37257453
       57.38556       66.37222493        1.38294970
       57.48525       61.12738028        1.35251509
       57.58495       57.04310102        1.33634974
       57.68464       52.92682746        1.29829399
       57.78433       51.35915151        1.11874793
       57.88403       53.34472265        1.15354175
       57.98372       51.86727669        1.15550758
       58.08341       53.20838164        1.26548079
       58.18311       52.31045147        1.28349395
       58.28280       53.08818304        1.21789579
       58.38249       50.75453693        1.24419974
       58.48219       53.03524621        1.29941530
       58.58188       52.66607665        1.30902925
       58.68157       53.47644217        1.29260519
       58.78127       51.61089993        1.11067565
       58.88096       55.58762933        1.13582335
       58.98065       56.07806829        1.18428217
       59.08035       57.21919325        1.27653201
       59.18004       57.16349817        1.29428516
       59.27973       62.57014432        1.27782002
       59.37943       61.99798862        1.31385196
       59.47912       67.93633818        1.43198355
       59.57881       70.31317049        1.52622917
       59.67851       75.76936193        1.47731962
       59.77820       82.29928054        1.41562533
       59.87789       92.97574575        1.49974240
       59.97759       99.12762330        1.62013742
       60.07728      105.79167311        1.81280865
       60.17697      105.76636789        1.72667480
       60.27667      110.26304955        1.71430575
       60.37636      106.52841513        1.71748398
       60.47605      102.56527086        1.75787776
       60.57575      100.20336616        1.90413970
       60.67544       95.27878129        1.59500636
       60.77514       85.61939623        1.43703575
       60.87483       77.60379141        1.34129215
       60.97452       73.25920084        1.37277972
       61.07422       67.21090845        1.47684509
       61.17391       66.17015749        1.26931279
       61.27360       67.30592032        1.32567178
       61.37330       68.83054948        1.39039595
       61.47299       67.90024163        1.44161141
       61.57268       68.86804673        1.65106643
       61.67238       69.39617105        1.35083061
       61.77207       71.74183863        1.33776984
       61.87176       69.58031414        1.30268495
       61.97146       69.81578653        1.35476327
       62.07115       68.74136189        1.52245078
       62.17084       67.16185665        1.31836891
       62.27054       68.16315845        1.38490233
       62.37023       68.04894453        1.43886070
       62.46992       64.46222290        1.44824294
       62.56962       67.04235633        1.65897709
       62.66931       66.59451672        1.33196571
       62.76900       72.86706312        1.35828527
       62.86870       82.38092775        1.41314163
       62.96839       93.05175799        1.55028577
       63.06808      100.17807128        1.79042984
       63.16778      104.94780326        1.62689584
       63.26747      112.92457560        1.74674176
       63.36716      117.75624252        1.85129891
       63.46686      121.24195802        1.93496923
       63.56655      127.72954769        2.11030756
       63.66624      140.31163709        1.88061440
       63.76594      148.39358499        1.87896808
       63.86563      161.69472427        1.95598609
       63.96532      171.13859406        2.10618327
       64.06502      176.01704161        2.28861152
       64.16471      174.00544634        2.10467726
       64.26440      163.89202553        2.12584675
       64.36410      150.19286240        2.07550489
       64.46379      133.91653744        2.07181802
       64.56349      120.84892373        2.00255897
       64.66318      101.27864911        1.60374906
       64.76287       85.28762407        1.45297187
       64.86257       71.09731844        1.32407301
       64.96226       63.93326366        1.31494360
       65.06195       58.50575802        1.35995764
       65.16165       55.14370702        1.19089744
       65.26134       52.64780324        1.19077637
       65.36103       53.35337171        1.25088025
       65.46073       53.56503969        1.29454878
       65.56042       54.05011355        1.35820838
       65.66011       56.93853220        1.21565653
       65.75981       60.15099462        1.23711903
       65.85950       60.93205881        1.23720760
       65.95919       63.01627433        1.31714500
       66.05889       65.46336388        1.38868787
       66.15858       69.76299053        1.36336975
       66.25827       77.93711203        1.49061587
       66.35797       87.85392415        1.64905040
       66.45766       99.11822511        1.86157421
       66.55735      109.51858413        1.95666522
       66.65705      126.00285572        1.86238848
       66.75674      143.17912187        1.93532865
       66.85643      155.42978585        1.99397397
       66.95613      166.04215001        2.14335057
       67.05582      165.00351654        2.15245065
       67.15551      167.62297476        2.06468709
       67.25521      164.15485482        2.14452716
       67.35490      151.31274088        2.16691447
       67.45459      135.99359234        2.16585665
       67.55429      118.70357043        1.93803534
       67.65398      100.64220423        1.59897028
       67.75367       86.06358717        1.46607854
       67.85337       75.96708778        1.39401447
       67.95306       74.72069105        1.47835150
       68.05275       78.20379936        1.43226859
       68.15245       79.44358390        1.43114538
       68.25214       89.00003059        1.60817224
       68.35184       95.69101491        1.73810118
       68.45153      101.74444848        1.97323483
       68.55122      108.23965741        1.75352402
       68.65092      118.48856091        1.71048062
       68.75061      125.95965549        1.78209337
       68.85030      126.90227360        1.82318269
       68.95000      125.64128554        2.05668302
       69.04969      125.47102246        1.73580195
       69.14938      113.86602524        1.69985561
       69.24908      101.28780097        1.71162248
       69.34877       91.10061667        1.67852313
       69.44846       83.70962542        1.86602986
       69.54816       73.36624643        1.36169749
       69.64785       66.54345091        1.27839270
       69.74754       59.33752311        1.21909490
       69.84724       56.50632851        1.22059515
       69.94693       54.51519052        1.35295356
       70.04662       49.23090650        1.05710500
       70.14632       49.58680232        1.10322639
       70.24601       47.43219985        1.15522434
       70.34570       48.51061435        1.23631485
       70.44540       47.81156947        1.44610195
       70.54509       47.65162138        1.13001185
       70.64478       49.57394771        1.15101834
       70.74448       48.52678434        1.15680427
       70.84417       50.87805919        1.22923620
       70.94386       48.57888575        1.31840876
       71.04356       50.37232412        1.11100582
       71.14325       50.61642379        1.15733557
       71.24294       53.15696380        1.24800066
       71.34264       52.14409572        1.31059502
       71.44233       54.94062210        1.50133534
       71.54202       55.10561175        1.22411578
       71.64172       52.62686449        1.16356403
       71.74141       50.34475015        1.11731453
       71.84110       53.71404010        1.19481373
       71.94080       53.33230147        1.29732194
       72.04049       53.10107999        1.09566307
       72.14019       52.00117835        1.12964759
       72.23988       52.19078291        1.18412364
       72.33957       55.85266950        1.36846520
       72.43927       54.50497233        1.48805014
       72.53896       55.28948208        1.20168361
       72.63865       51.24343849        1.13063572
       72.73835       53.51328961        1.13008467
       72.83804       56.87458571        1.23038062
       72.93773       56.97592042        1.30810282
       73.03743       61.84155943        1.18313852
       73.13712       64.66101332        1.27596081
       73.23681       65.28155282        1.34695837
       73.33651       64.67784779        1.47522850
       73.43620       60.52187580        1.54546619
       73.53589       62.85527667        1.27062154
       73.63559       66.89989486        1.29046447
       73.73528       66.69975034        1.28266909
       73.83497       65.57880373        1.34831220
       73.93467       63.41108296        1.39600739
       74.03436       66.95715791        1.26969565
       74.13405       63.46337406        1.28852195
       74.23375       62.00824242        1.32663622
       74.33344       61.92547414        1.45946509
       74.43313       62.74413605        1.52445217
       74.53283       62.86065718        1.29644145
       74.63252       65.41408078        1.31304220
       74.73221       68.63730703        1.33857115
       74.83191       75.17383473        1.48635192
       74.93160       74.34936431        1.49476722
       75.03129       79.09963015        1.37087870
       75.13099       85.02985892        1.47247170
       75.23068       87.72638237        1.56012429
       75.33037       97.20791252        1.80569167
       75.43007       99.89897261        1.85698511
       75.52976      108.96800096        1.68496704
       75.62945      119.90871807        1.76649319
       75.72915      130.06258953        1.83296479
       75.82884      135.27711125        2.01288995
       75.92854      137.63703814        1.90606438
       76.02823      146.51352077        1.84484988
       76.12792      151.40354915        1.96042391
       76.22762      150.05327500        2.05898387
       76.32731      150.80648782        2.33126777
       76.42700      146.91377482        2.17142198
       76.52670      146.12158704        1.99780331
       76.62639      139.19862845        1.92486029
       76.72608      128.12210672        1.81543957
       76.82578      122.63104264        2.04624515
       76.92547      123.55571697        1.64525202
       77.02516      117.36353225        1.66159686
       77.12486      120.79478924        1.77100922
       77.22455      127.94667538        1.94119437
       77.32424      131.25949312        2.41570703
       77.42394      132.15333332        1.93544649
       77.52363      134.19049602        1.88473506
       77.62332      136.89801145        1.89506829
       77.72302      144.76344528        1.95362993
       77.82271      149.10823376        2.32555033
       77.92240      151.95441917        1.79784414
       78.02210      147.49526293        1.91096954
       78.12179      147.26876982        2.03945733
       78.22148      141.38662332        2.11276619
       78.32118      132.29560659        2.37075038
       78.42087      129.22866555        1.84394887
       78.52056      120.91107666        1.84145685
       78.62026      116.74269154        1.79507497
       78.71995      105.82388800        1.71424132
       78.81964      103.57095633        1.89423811
       78.91934       90.29241710        1.36989159
       79.01903       79.49737469        1.40878487
       79.11872       72.24842045        1.39739388
       79.21842       67.35549506        1.43912293
       79.31811       67.23035202        1.61955986
       79.41780       63.72750222        1.27895795
       79.51750       64.47106109        1.30715518
       79.61719       63.81645387        1.30429915
       79.71689       65.11602452        1.36795248
       79.81658       65.54432681        1.45487519
       79.91627       63.99462518        1.21849379
       80.01597       63.04446605        1.24306012
       80.11566       62.25534808        1.29125508
       80.21535       63.96488371        1.39919774
       80.31505       66.89465256        1.70115078
       80.41474       66.67846971        1.30506676
       80.51443       69.64095088        1.32803876
       80.61413       71.74981471        1.39279579
       80.71382       74.83198698        1.47155724
       80.81351       79.80305461        1.70785666
       80.91321       88.80874371        1.32892486
       81.01290      105.70200848        1.56584447
       81.11259      122.49532382        1.82011238
       81.21229      138.51934205        2.09421160
       81.31198      153.63193872        2.46098583
       81.41167      172.93975083        2.04514260
       81.51137      195.32927620        2.23694951
       81.61106      209.70751658        2.42071567
       81.71075      230.31626923        2.62684686
       81.81045      238.44209868        2.83183474
       81.91014      254.17116869        2.24873037
       82.00983      276.87280357        2.50992743
       82.10953      285.77520884        2.85297157
       82.20922      292.09845385        3.20813466
       82.30891      299.22675887        3.40534000
       82.40861      305.61986791        2.79918459
       82.50830      297.52554458        2.75395587
       82.60799      291.52003762        2.93589560
       82.70769      291.84328472        3.19686031
       82.80738      292.59872271        3.05853560
       82.90707      285.24281084        2.45173117
       83.00677      272.81386165        2.55404341
       83.10646      267.81004617        2.97752042
       83.20615      245.48951647        3.17126530
       83.30585      236.41234381        2.94789749
       83.40554      215.76118646        2.34037362
       83.50524      200.97977042        2.20362805
       83.60493      183.83905146        2.32116459
       83.70462      170.82708619        2.52257322
       83.80432      153.40106249        2.08829235
       83.90401      129.42918908        1.60823538
       84.00370      110.41444036        1.54867770
       84.10340       92.09303621        1.68936073
       84.20309       83.49990121        1.95252095
       84.30278       77.84186525        1.53300605
       84.40248       73.59610892        1.31544456
       84.50217       66.19857846        1.22364580
       84.60186       69.45659799        1.41745257
       84.70156       65.72904943        1.80416750
       84.80125       65.72742274        1.25607798
       84.90094       65.29502963        1.12462274
       85.00064       62.14361581        1.13026411
       85.10033       63.39453674        1.35109503
       85.20002       67.55871292        2.39251158
       85.29972       65.92877541        1.24667585
       85.39941       65.50593578        1.26694228
       85.49910       65.11956925        1.22841282
       85.59880       67.57095653        1.40718659
       85.69849       69.84374749        2.56873002
       85.79818       66.04521900        1.17751442
       85.89788       64.43953371        1.13525797
       85.99757       65.66234350        1.17754669
       86.09726       64.95635266        1.34467625
       86.19696       62.18685020        2.52675136
       86.29665       62.37472248        1.19754263
       86.39634       60.90793924        1.20385369
       86.49604       61.72029771        1.19356231
       86.59573       57.86946305        1.23124609
       86.69542       57.40509974        2.56389488
       86.79512       57.10758000        1.06152356
       86.89481       54.93373223        1.02637387
       86.99451       54.18178499        1.05654627
       87.09420       53.00878151        1.16546319
       87.19389       53.30537639        2.76846720
       87.29359       52.34411125        1.11178512
       87.39328       51.75057785        1.12037592
       87.49297       50.37208278        1.07299393
       87.59267       48.98985368        1.07892537
       87.69236       46.59801370        3.14839754
       87.79205       49.59612356        1.01193049
       87.89175       49.80594476        1.00591208
       87.99144       49.45921698        1.04450675
       88.09113       50.78424851        1.12501062
       88.19083       57.12998759        6.31566393
       88.29052       51.25674261        1.13737304
       88.39021       50.43502956        1.13570673
       88.48991       48.48581118        1.06861383
       88.58960       51.96168779        1.07144316
       88.68929       50.69419611        8.19789130
       88.78899       49.53623990        1.00968249
       88.88868       49.12838062        0.98354224
       88.98837       50.30131772        1.03515739
       89.08807       50.98969014        1.06754131
       89.18776       52.48945137        8.81339294
       89.28745       50.57965013        1.08024779
       89.38715       50.82391089        1.09398490
       89.48684       54.64499328        1.11024151
       89.58653       54.12003108        1.08242702
       89.68623       59.87699311        9.23181561
       89.78592       58.22010057        1.09103949
       89.88561       61.77290889        1.10190895
       89.98531       64.97642980        1.15894278
       90.08500       71.05934180        1.25724646
       90.18469       89.67694674       11.78707082
       90.28439       75.65272388        1.32507585
       90.38408       81.47764313        1.39848068
       90.48377       86.07850313        1.41062532
       90.58347       91.24048206        1.42970015
       90.68316      107.46113412       12.09296569
       90.78286       93.89100960        1.38840257
       90.88255       93.39431292        1.34735519
       90.98224       99.92212539        1.44223612
       91.08194       99.28240354        1.48474349
       91.18163       89.47843365       11.24376184
       91.28132      100.86697252        1.54092376
       91.38102       97.25262911        1.55302165
       91.48071       95.48654420        1.50100307
       91.58040       88.83426982        1.39985620
       91.68010       73.08651083        9.60062228
       91.77979       87.26180617        1.33179574
       91.87948       82.98581917        1.27851195
       91.97918       79.23973954        1.29713677
       92.07887       75.68164665        1.32035763
       92.17856       76.59735093       10.10007332
       92.27826       78.46080089        1.38861001
       92.37795       76.10429235        1.39992492
       92.47764       72.65989048        1.29837044
       92.57734       76.64773111        1.29383706
       92.67703       82.50518302        8.71542843
       92.77672       77.63142679        1.25501592
       92.87642       82.94451732        1.27271636
       92.97611       86.07934028        1.35399869
       93.07580       91.35293327        1.59227031
       93.17550       90.22596244        2.97545270
       93.27519       91.72133302        1.47060621
       93.37488       95.44579047        1.45845910
       93.47458      101.08202294        1.51770593
       93.57427      101.82729979        1.76115979
       93.67396      105.24643411        2.41997658
       93.77366       98.76341357        1.45189624
       93.87335       98.34924622        1.38391379
       93.97304       94.29942600        1.41201001
       94.07274       90.23406353        1.79300224
       94.17243       93.04607088        2.07768997
       94.27212       88.85868560        1.51205231
       94.37182       90.58916233        1.48801495
       94.47151       88.66466402        1.40972450
       94.57121       84.62843714        1.81740605
       94.67090       81.00539636        1.79844131
       94.77059       84.31979248        1.42653875
       94.87029       77.12441792        1.24031271
       94.96998       72.85017670        1.22054642
       95.06967       70.34698057        1.38252551
       95.16937       66.52024107        1.84010278
       95.26906       64.95955912        1.40467631
       95.36875       62.55609517        1.25069445
       95.46845       63.50020117        1.21105038
       95.56814       58.04046554        1.33203766
       95.66783       58.21125867        1.49869323
       95.76753       57.39813422        1.22975258
       95.86722       54.50509188        1.01924328
       95.96691       54.98672547        1.06189129
       96.06661       52.90228055        1.33417445
       96.16630       55.79446761        1.46128384
       96.26599       51.40301154        1.25942965
       96.36569       50.34995489        1.11838340
       96.46538       48.08291545        1.05467576
       96.56507       47.19971454        1.28969429
       96.66477       47.47231830        1.26035084
       96.76446       49.26569149        1.14742176
       96.86415       47.25927141        0.97337202
       96.96385       47.99273249        1.01313875
       97.06354       50.10953216        1.39996194
       97.16323       49.35116912        1.32838181
       97.26293       49.92382792        1.25525955
       97.36262       51.61829256        1.18204297
       97.46231       48.86816151        1.05799077
       97.56201       48.83831054        1.34560846
       97.66170       49.67496784        1.21895250
       97.76139       52.78695849        1.14168994
       97.86109       53.45689815        1.03892699
       97.96078       54.88452764        1.07575818
       98.06047       54.32754363        1.48657752
       98.16017       57.42663581        1.35883046
       98.25986       56.22486178        1.28421765
       98.35956       59.30704474        1.24534028
       98.45925       61.59398385        1.18469081
       98.55894       66.08700947        1.60100323
       98.65864       63.17594820        1.34294756
       98.75833       67.00138015        1.29240908
       98.85802       68.86549310        1.22349509
       98.95772       70.04910122        1.22577872
       99.05741       73.13290397        1.73892305
       99.15710       72.67885959        1.49079503
       99.25680       77.24078462        1.48917180
       99.35649       79.71301626        1.44096530
       99.45618       82.66878609        1.36766011
       99.55588       82.75986975        1.82845649
       99.65557       84.12771688        1.52094213
       99.75526       87.66673709        1.45538562
       99.85496       86.44211786        1.37543507
       99.95465       86.47786934        1.34872931
      100.05434       86.34183179        1.91985064
      100.15404       85.64577801        1.61050686
      100.25373       87.24220164        1.60607112
      100.35342       85.08904286        1.57980933
      100.45312       84.71962621        1.43842680
      100.55281       87.37191122        1.91876682
      100.65250       84.73450962        1.53922777
      100.75220       78.19346260        1.36930933
      100.85189       77.31919855        1.30100348
      100.95158       75.77909797        1.25350099
      101.05128       77.10681137        1.80278900
      101.15097       80.07471844        1.51852794
      101.25066       76.09972860        1.46240595
      101.35036       76.68539525        1.48077920
      101.45005       75.63341245        1.38283592
      101.54974       78.46405808        1.75447788
      101.64944       74.68732939        1.39637522
      101.74913       73.50199333        1.30515049
      101.84882       77.72883215        1.30667310
      101.94852       79.05757878        1.38818461
      102.04821       80.52744410        1.68758445
      102.14791       80.53640821        1.52098601
      102.24760       77.62208870        1.48045118
      102.34729       78.30688773        1.48093452
      102.44699       79.01898252        1.51355550
      102.54668       84.75217036        1.64514265
      102.64637       84.61645378        1.46813010
      102.74607       85.27624725        1.40367334
      102.84576       89.29561769        1.40929688
      102.94545       88.63639280        1.59914598
      103.04515       83.24353038        1.64027844
      103.14484       84.24425302        1.54175948
      103.24453       84.49603249        1.52025348
      103.34423       84.81244665        1.51078482
      103.44392       87.24326036        1.65995467
      103.54361       86.11574076        1.60204075
      103.64331       86.75662453        1.46373291
      103.74300       86.64794311        1.39532408
      103.84269       86.85424961        1.37281158
      103.94239       83.80712250        1.62036375
      104.04208       80.25071270        1.53378669
      104.14177       85.40440984        1.53968660
      104.24147       81.15855378        1.49993887
      104.34116       82.64955719        1.52313146
      104.44085       83.55962185        1.73946129
      104.54055       80.55723369        1.54617606
      104.64024       79.11377615        1.44024369
      104.73993       75.82693686        1.34536443
      104.83963       70.95214255        1.25360158
      104.93932       71.45990849        1.52519053
      105.03901       72.92199420        1.45180943
      105.13871       67.76305959        1.34731634
      105.23840       69.96661759        1.36836745
      105.33809       68.33943532        1.36026735
      105.43779       68.60584086        1.58582308
      105.53748       67.96105201        1.41541990
      105.63717       65.98691058        1.27832722
      105.73687       63.47658200        1.19309329
      105.83656       59.74660771        1.12775453
      105.93626       62.43403391        1.46107249
      106.03595       59.58029397        1.29346206
      106.13564       57.02642349        1.22295573
      106.23534       55.45528484        1.22077443
      106.33503       55.22317792        1.23051380
      106.43472       53.79965712        1.43580397
      106.53442       56.06993275        1.27504917
      106.63411       53.04096602        1.12641637
      106.73380       53.52322891        1.07846889
      106.83350       53.26342560        1.05977649
      106.93319       53.29398301        1.37420252
      107.03288       55.82871963        1.24667375
      107.13258       56.05252685        1.21250233
      107.23227       58.18578516        1.25338278
      107.33196       57.93046891        1.24718598
      107.43166       56.57542852        1.48084727
      107.53135       55.54705724        1.26596195
      107.63104       55.29148593        1.15007099
      107.73074       59.52392353        1.14501364
      107.83043       61.03993995        1.14490747
      107.93012       60.88617475        1.51264407
      108.02982       62.18484791        1.33806213
      108.12951       66.08361397        1.31190472
      108.22920       62.20378049        1.25223063
      108.32890       66.36710796        1.28131416
      108.42859       65.21164664        1.61190283
      108.52828       68.83454197        1.40494036
      108.62798       68.39008862        1.26979886
      108.72767       68.15139223        1.21665713
      108.82736       68.39716733        1.24571575
      108.92706       69.92001400        1.59524220
      109.02675       65.09282409        1.34630507
      109.12644       64.24833438        1.30542178
      109.22614       64.87993097        1.31288408
      109.32583       65.50627812        1.43755616
      109.42552       66.59796889        1.52899462
      109.52522       67.19987130        1.38570260
      109.62491       64.54533461        1.29162140
      109.72461       63.27239793        1.22257139
      109.82430       62.27296360        1.13294728
      109.92399       60.05472305        1.44645547
      110.02369       60.09341446        1.26708158
      110.12338       57.75223367        1.23395887
      110.22307       59.33631636        1.24147615
      110.32277       57.81660304        1.25134165
      110.42246       56.11929341        1.49889957
      110.52215       55.42466204        1.26160219
      110.62185       56.29273336        1.19831846
      110.72154       56.17433456        1.11679275
      110.82123       53.90542576        1.12975821
      110.92093       53.66006818        1.31465318
      111.02062       56.99438753        1.25186085
      111.12031       54.29297668        1.23083881
      111.22001       55.82361738        1.22475388
      111.31970       55.47907043        1.32507202
      111.41939       55.82739613        1.37545687
      111.51909       57.09791627        1.26223754
      111.61878       57.89400250        1.19734373
      111.71847       62.00217098        1.15300523
      111.81817       62.26581045        1.25408408
      111.91786       65.46286880        1.35337810
      112.01755       68.68650341        1.35379687
      112.11725       68.55308573        1.36271859
      112.21694       71.65108356        1.38706443
      112.31663       72.44013886        1.53691189
      112.41633       75.99057622        1.54659586
      112.51602       76.59428584        1.42989995
      112.61571       79.99480088        1.39413126
      112.71541       83.35561505        1.34128553
      112.81510       86.90036175        1.53578292
      112.91479       89.95551362        1.59186273
      113.01449       87.86497201        1.54050042
      113.11418       89.32948165        1.54817380
      113.21387       90.00758415        1.54700620
      113.31357       90.22444041        1.72015145
      113.41326       91.07654454        1.64249172
      113.51296       93.26373161        1.56357212
      113.61265       92.28860551        1.50073106
      113.71234       92.15605008        1.43242063
      113.81204       90.24650566        1.62383449
      113.91173       91.34376712        1.58312449
      114.01142       88.60512184        1.54335785
      114.11112       87.56930205        1.53344071
      114.21081       84.58748208        1.51784892
      114.31050       88.22133809        1.75810986
      114.41020       89.99925539        1.64098179
      114.50989       87.87218186        1.51785188
      114.60958       85.19020374        1.44612318
      114.70928       82.28356379        1.37061426
      114.80897       81.24238505        1.54460627
      114.90866       82.08470860        1.46445253
      115.00836       82.44576298        1.46082826
      115.10805       83.43982496        1.47766488
      115.20774       85.99883893        1.52299196
      115.30744       85.91499787        1.74781560
      115.40713       87.65377798        1.59913747
      115.50682       86.33883842        1.49827320
      115.60652       88.04645697        1.45829061
      115.70621       88.47856359        1.40497851
      115.80590       91.86843605        1.67032310
      115.90560       91.11682505        1.50767947
      116.00529       93.16562609        1.54165685
      116.10498       93.19400957        1.55800386
      116.20468       96.26120938        1.61996406
      116.30437      101.20345188        1.98039293
      116.40406      100.66191464        1.72018516
      116.50376      100.41973934        1.62359548
      116.60345      101.34380766        1.56573323
      116.70314      111.14801545        1.59052474
      116.80284      113.29963624        1.90819784
      116.90253      119.22101805        1.76117002
      117.00222      121.82502182        1.76637952
      117.10192      125.68377018        1.84245499
      117.20161      130.75041923        1.90243997
      117.30131      133.02404987        2.29639111
      117.40100      135.12206757        1.94588637
      117.50069      136.02639263        1.85435815
      117.60039      146.72712635        1.84379886
      117.70008      150.08858003        1.80678800
      117.79977      159.74786183        2.28493577
      117.89947      157.84952750        1.97439387
      117.99916      166.26295400        2.05109594
      118.09885      161.95968533        2.06202405
      118.19855      163.70859750        2.17150081
      118.29824      172.64304970        2.44539499
      118.39793      172.40496027        2.21867885
      118.49763      175.98976450        2.11553906
      118.59732      175.70878824        2.04085812
      118.69701      178.05087012        2.14034411
      118.79671      179.26636673        2.31904930
      118.89640      176.59870081        2.14582782
      118.99609      176.26073030        2.14145447
      119.09579      177.85274124        2.17629770
      119.19548      175.16370536        2.35968989
      119.29517      176.63324176        2.46192783
      119.39487      172.91926868        2.23895449
      119.49456      172.71232448        2.10863659
      119.59425      168.01858772        2.01947012
      119.69395      167.56761547        2.12766883
      119.79364      162.59540983        2.11776367
      119.89333      156.53156279        2.01060391
      119.99303      151.25057186        1.92931029
      120.09272      146.27747275        1.94023172
      120.19241      147.61127712        2.19088119
      120.29211      140.79588872        2.11738339
      120.39180      137.70838523        1.99758781
      120.49149      130.11138157        1.80540300
      120.59119      128.76799171        1.74318976
      120.69088      124.39353353        1.84411979
      120.79057      123.99934226        1.80164491
      120.89027      121.48952561        1.75064903
      120.98996      120.16275502        1.72760258
      121.08966      119.98813455        1.73925969
      121.18935      117.57667664        1.97334000
      121.28904      119.32129745        1.93765072
      121.38874      116.21475898        1.80812045
      121.48843      114.35013658        1.69391862
      121.58812      117.28819458        1.63636317
      121.68782      116.35246910        1.80550768
      121.78751      118.21164621        1.73427891
      121.88720      117.81170132        1.70918266
      121.98690      114.00211245        1.69369247
      122.08659      113.53262756        1.72402089
      122.18628      110.00604234        1.96841569
      122.28598      110.10086522        1.85188122
      122.38567      113.06251347        1.79749312
      122.48536      109.48701242        1.67299741
      122.58506      110.54341603        1.59218969
      122.68475      110.83570293        1.80664047
      122.78444      107.07681115        1.67183525
      122.88414      108.98192782        1.67243693
      122.98383      104.65730525        1.67224560
      123.08352      101.70619954        1.63423473
      123.18322      103.21184908        1.92019309
      123.28291       99.88114003        1.71657207
      123.38260      104.56911105        1.69584064
      123.48230      101.54342399        1.61048136
      123.58199       98.69596876        1.48386999
      123.68168       98.06008075        1.68774828
      123.78138       96.42187603        1.50983548
      123.88107       92.43894140        1.44394050
      123.98076       90.97290071        1.45886762
      124.08046       89.19060664        1.42919716
      124.18015       89.45441738        1.62005889
      124.27984       89.27345926        1.44998879
      124.37954       85.84272598        1.34154572
      124.47923       82.90073946        1.28691671
      124.57893       79.70702215        1.34425768
