        5.04651       63.68059337        2.72152558
        5.14621       60.75953386        2.56175012
        5.24590       54.62664359        2.39367391
        5.34559       58.86032715        2.27921949
        5.44529       56.76944230        2.43496521
        5.54498       55.08716288        2.01754289
        5.64467       56.99737265        2.03442471
        5.74437       55.73043653        1.81584404
        5.84406       56.42724328        1.84912716
        5.94375       52.88068207        1.78745089
        6.04345       55.18214488        1.77438016
        6.14314       55.24063305        1.62550832
        6.24283       55.58519653        1.68441636
        6.34253       54.74997963        1.59442313
        6.44222       54.84675572        1.68035889
        6.54191       53.74365374        1.57573093
        6.64161       52.45607225        1.47469366
        6.74130       52.11844731        1.47586000
        6.84099       58.32484749        1.55029874
        6.94069       52.43295036        1.49173416
        7.04038       51.46990603        1.36422788
        7.14007       52.79759553        1.37891109
        7.23977       55.12964811        1.38451365
        7.33946       52.85211009        1.37625349
        7.43915       54.08545909        1.37411188
        7.53885       53.05078347        1.33574661
        7.63854       53.79951573        1.28568809
        7.73823       54.44820853        1.34306145
        7.83793       52.16549621        1.27205765
        7.93762       53.53950513        1.34436621
        8.03732       55.52249265        1.22787330
        8.13701       53.40246104        1.19867776
        8.23670       53.74009399        1.21944295
        8.33640       54.32117930        1.22637988
        8.43609       53.20291447        1.26881368
        8.53578       57.41128347        1.22785983
        8.63548       52.21991134        1.15735937
        8.73517       55.70374632        1.17270391
        8.83486       55.63352248        1.17481560
        8.93456       55.29426285        1.16519863
        9.03425       53.81825480        1.11582173
        9.13394       54.85346157        1.12866420
        9.23364       54.16522545        1.13790969
        9.33333       53.57133788        1.15467072
        9.43302       54.23729659        1.16228513
        9.53272       54.38063651        1.12450532
        9.63241       55.86029743        1.17197623
        9.73210       52.54215069        1.13422427
        9.83180       56.00233459        1.22029764
        9.93149       55.92346595        1.21070592
       10.03118       56.60773774        1.17206398
       10.13088       55.36240663        1.13127597
       10.23057       56.02921387        1.19181736
       10.33026       55.36061309        1.22454342
       10.42996       56.51000781        1.22028823
       10.52965       55.95620547        1.17596377
       10.62934       54.96597248        1.16827152
       10.72904       57.94161428        1.21734465
       10.82873       54.04459298        1.16960911
       10.92842       56.84556596        1.21976179
       11.02812       55.86105979        1.15193352
       11.12781       58.14137186        1.21746250
       11.22750       56.67348988        1.21390823
       11.32720       55.97358786        1.23880762
       11.42689       56.52284862        1.20170363
       11.52658       57.80650347        1.20084352
       11.62628       54.97957813        1.18370206
       11.72597       55.72168543        1.21700648
       11.82567       57.35858346        1.26916185
       11.92536       60.41325429        1.21905290
       12.02505       60.29591579        1.22353367
       12.12475       61.58130750        1.23543763
       12.22444       61.82999703        1.31266605
       12.32413       66.74721256        1.38483026
       12.42383       73.73850413        1.38177618
       12.52352       77.29007827        1.40588206
       12.62321       85.92948578        1.52455461
       12.72291       96.93917444        1.57579372
       12.82260      114.19494702        1.85953421
       12.92229      120.11980310        1.73174759
       13.02199      141.57672861        1.86556093
       13.12168      168.15363968        2.06905680
       13.22137      204.63846954        2.35785778
       13.32107      238.75741309        2.63009084
       13.42076      282.04693778        2.75389611
       13.52045      308.09709102        2.91392802
       13.62015      340.16323263        2.97017347
       13.71984      331.91445865        3.05782318
       13.81953      313.87164596        3.02421474
       13.91923      285.40421792        2.70898252
       14.01892      221.09284962        2.31965419
       14.11861      174.96145552        2.15243314
       14.21831      142.98747836        1.94748864
       14.31800      113.45554116        1.82564441
       14.41769       86.32381540        1.53292271
       14.51739       73.23934748        1.37732995
       14.61708       66.22788660        1.31294539
       14.71677       59.20540528        1.26144824
       14.81647       54.60432647        1.26892165
       14.91616       54.18638848        1.16245037
       15.01585       51.76753616        1.15660045
       15.11555       52.12838743        1.17409276
       15.21524       53.93256560        1.23092370
       15.31493       48.43330151        1.19437903
       15.41463       52.47215114        1.20385334
       15.51432       49.06046813        1.12785532
       15.61402       51.82644453        1.18868282
       15.71371       49.08856593        1.14880186
       15.81340       50.35363448        1.21044581
       15.91310       50.84757708        1.18191257
       16.01279       49.74808266        1.11932413
       16.11248       52.18476871        1.17729554
       16.21218       50.05240258        1.18485432
       16.31187       49.00957076        1.17526986
       16.41156       50.62559891        1.17231392
       16.51126       51.80353728        1.20597530
       16.61095       51.86969186        1.16358072
       16.71064       50.56590385        1.18513191
       16.81034       53.29093370        1.22044570
       16.91003       53.96351171        1.19273301
       17.00972       56.44732510        1.17117416
       17.10942       58.22481520        1.25727243
       17.20911       61.02368568        1.29861526
       17.30880       67.56967022        1.37864952
       17.40850       69.57722347        1.39871883
       17.50819       76.32034713        1.42276565
       17.60788       75.28788071        1.45691874
       17.70758       78.41026803        1.49311183
       17.80727       76.48939577        1.49281608
       17.90696       74.86479197        1.38077481
       18.00666       69.49431594        1.35344057
       18.10635       64.87675259        1.27177994
       18.20604       60.82757281        1.35075668
       18.30574       58.57197756        1.26317579
       18.40543       58.16395392        1.22761111
       18.50512       54.85525373        1.22966748
       18.60482       56.17777790        1.22494305
       18.70451       52.65526501        1.25307531
       18.80420       53.38040945        1.18528421
       18.90390       51.17942163        1.14811261
       19.00359       52.47147634        1.13217812
       19.10328       49.72434114        1.16594083
       19.20298       49.03548692        1.19383523
       19.30267       49.79639804        1.15535603
       19.40237       47.78861481        1.11893562
       19.50206       47.65387191        1.14544409
       19.60175       49.50051977        1.15441149
       19.70145       47.24910436        1.18256490
       19.80114       47.03760002        1.11907036
       19.90083       48.58775849        1.09898449
       20.00053       50.40478395        1.13927931
       20.10022       49.09881205        1.13272235
       20.19991       48.32996073        1.20145454
       20.29961       49.45672679        1.15162399
       20.39930       50.64916758        1.20068136
       20.49899       52.06405522        1.19624734
       20.59869       51.57672773        1.21238406
       20.69838       52.87681963        1.27289540
       20.79807       53.54551209        1.22176891
       20.89777       54.29116844        1.20244599
       20.99746       58.97171728        1.26587641
       21.09715       59.72946462        1.34194645
       21.19685       59.07576681        1.32759631
       21.29654       59.80371146        1.30305067
       21.39623       59.69548341        1.30193433
       21.49593       57.94503363        1.26429256
       21.59562       53.27113224        1.24121761
       21.69531       50.93501399        1.26230119
       21.79501       50.41622017        1.14883723
       21.89470       49.33945068        1.11088751
       21.99439       45.72452700        1.11461699
       22.09409       48.27326256        1.14820179
       22.19378       44.87157304        1.17549073
       22.29347       46.40412568        1.11338563
       22.39317       48.57915442        1.16878072
       22.49286       45.94355716        1.13561928
       22.59255       45.88264215        1.14820770
       22.69225       44.93659873        1.19740367
       22.79194       46.18747086        1.09029268
       22.89163       48.83905126        1.09933424
       22.99133       47.10863062        1.10955632
       23.09102       46.15490272        1.14055897
       23.19072       47.59612796        1.16102046
       23.29041       45.56536783        1.12175783
       23.39010       45.65994716        1.13468910
       23.48980       46.59658170        1.15046771
       23.58949       47.07259235        1.17185523
       23.68918       47.08226622        1.23240773
       23.78888       47.86988266        1.10750047
       23.88857       46.33528545        1.10380260
       23.98826       44.84767562        1.11013778
       24.08796       46.51978589        1.10867970
       24.18765       46.48417290        1.18750208
       24.28734       48.57652328        1.15586924
       24.38704       47.82931837        1.16608371
       24.48673       47.17617357        1.15392637
       24.58642       47.69981319        1.19872748
       24.68612       47.31918526        1.19234169
       24.78581       44.75660328        1.06886400
       24.88550       47.26243258        1.09802746
       24.98520       46.22324045        1.12601474
       25.08489       47.21469172        1.16079041
       25.18458       47.26666474        1.18582853
       25.28428       47.92473183        1.15088162
       25.38397       51.39523158        1.18617996
       25.48366       50.08479543        1.17791077
       25.58336       52.63540341        1.25871862
       25.68305       57.78698762        1.29373428
       25.78274       66.42343919        1.30942276
       25.88244       80.33208079        1.47686189
       25.98213      104.08834685        1.69581042
       26.08182      131.11578312        1.95435936
       26.18152      162.98177782        2.23319914
       26.28121      189.98294239        2.28183865
       26.38090      203.06140972        2.37937276
       26.48060      202.26947328        2.44007738
       26.58029      178.39830518        2.38908007
       26.67998      160.93639755        2.14265764
       26.77968      125.57679334        1.86883535
       26.87937      101.81148511        1.65809319
       26.97907       80.64911836        1.46288872
       27.07876       72.72094030        1.49561578
       27.17845       74.69905906        1.44876690
       27.27815       75.77831499        1.42504732
       27.37784       82.60445840        1.54615150
       27.47753       85.70639130        1.55179981
       27.57723       84.71361152        1.61609096
       27.67692       85.05011803        1.58060663
       27.77661       82.48845398        1.48567218
       27.87631       71.76272621        1.36229319
       27.97600       63.44819964        1.30954157
       28.07569       56.73792190        1.31041520
       28.17539       53.05321684        1.21295863
       28.27508       54.18726662        1.22646034
       28.37477       52.12918961        1.23148853
       28.47447       51.21208844        1.21103561
       28.57416       51.56247784        1.31376299
       28.67385       54.43142768        1.20102622
       28.77355       55.71086315        1.19318063
       28.87324       57.14331046        1.24066309
       28.97293       57.97667506        1.25262623
       29.07263       62.24310093        1.41498527
       29.17232       56.90322940        1.23443342
       29.27201       59.45282528        1.28521815
       29.37171       54.82336328        1.26939871
       29.47140       56.57179885        1.27468675
       29.57109       51.92077373        1.29471801
       29.67079       51.53770837        1.17432964
       29.77048       50.02555538        1.15959647
       29.87017       47.41245486        1.10664487
       29.96987       50.36520649        1.19605924
       30.06956       51.48533857        1.24764889
       30.16925       47.32999350        1.12616979
       30.26895       47.42869099        1.13165387
       30.36864       51.02205422        1.19307215
       30.46833       53.94372065        1.23931238
       30.56803       55.07049502        1.32277474
       30.66772       55.43398186        1.23500084
       30.76742       60.31039749        1.26259173
       30.86711       64.17551335        1.32854102
       30.96680       65.88134498        1.35393485
       31.06650       66.61309016        1.42757179
       31.16619       66.17143296        1.33778728
       31.26588       61.44282940        1.28115331
       31.36558       60.38168403        1.28663198
       31.46527       58.72281096        1.32016252
       31.56496       63.11175618        1.39079745
       31.66466       66.22432003        1.33247608
       31.76435       74.65947346        1.41370228
       31.86404       83.40956355        1.47497672
       31.96374       86.81720414        1.53981360
       32.06343       89.02293926        1.61367825
       32.16312       88.43012321        1.51143348
       32.26282       78.06920895        1.45436196
       32.36251       70.50029044        1.43705993
       32.46220       64.19289806        1.39562970
       32.56190       62.96321862        1.40670685
       32.66159       56.56588922        1.26593218
       32.76128       53.83370142        1.20716724
       32.86098       55.65806346        1.24596873
       32.96067       52.92991507        1.23015486
       33.06036       54.58677111        1.27213068
       33.16006       53.09866792        1.18153457
       33.25975       54.79850022        1.23936630
       33.35944       56.01327469        1.25987279
       33.45914       56.20966209        1.31009363
       33.55883       59.60002331        1.35234235
       33.65852       61.94993347        1.28575608
       33.75822       67.70638088        1.34205583
       33.85791       71.73356685        1.38711378
       33.95760       84.18283948        1.54756451
       34.05730       91.08302288        1.59426841
       34.15699       99.10011913        1.63666835
       34.25668      115.72562208        1.76300670
       34.35638      138.64593504        1.98023115
       34.45607      180.08643719        2.37854098
       34.55577      222.85449320        2.52248945
       34.65546      288.39692239        2.75390255
       34.75515      376.01234027        3.20807188
       34.85485      449.48142275        3.48425375
       34.95454      473.91233833        3.69093815
       35.05423      446.25765437        3.70190488
       35.15393      391.07055177        3.25199486
       35.25362      299.73611026        2.88762768
       35.35331      217.00220777        2.51835754
       35.45301      159.26712329        2.25010516
       35.55270      117.01997258        1.87716328
       35.65239       90.65161175        1.59529402
       35.75209       81.99470996        1.50614945
       35.85178       78.48667551        1.47160480
       35.95147       71.62859015        1.43867956
       36.05117       70.84568526        1.40136260
       36.15086       65.80274407        1.29842044
       36.25055       58.44626061        1.27816380
       36.35025       54.86607238        1.26250752
       36.44994       56.20688263        1.30345669
       36.54963       57.59086589        1.26664236
       36.64933       53.69235051        1.20460666
       36.74902       51.75975728        1.19500765
       36.84871       49.41715607        1.15913303
       36.94841       54.42164746        1.31570759
       37.04810       52.52250680        1.13962436
       37.14779       52.34398189        1.16100776
       37.24749       48.94152112        1.15373039
       37.34718       48.78562349        1.18126892
       37.44687       50.99616586        1.29744736
       37.54657       48.25443819        1.15209223
       37.64626       50.03030516        1.16867553
       37.74595       49.61949488        1.14565333
       37.84565       48.58604075        1.19947097
       37.94534       47.29241405        1.20552463
       38.04503       49.36342057        1.11326728
       38.14473       48.57638521        1.11514836
       38.24442       50.05065638        1.15269168
       38.34412       52.50108924        1.23437802
       38.44381       49.86943233        1.30072033
       38.54350       52.03484122        1.18447329
       38.64320       52.44853465        1.18558532
       38.74289       51.77366282        1.19331056
       38.84258       55.14927646        1.23472281
       38.94228       55.42069656        1.29825587
       39.04197       60.42852596        1.22260196
       39.14166       65.31350805        1.32243119
       39.24136       69.41118842        1.35978084
       39.34105       71.45275315        1.42782744
       39.44074       73.78371147        1.58274667
       39.54044       72.55333455        1.40327692
       39.64013       68.50474284        1.35921208
       39.73982       66.04660579        1.33990867
       39.83952       63.40541270        1.30386741
       39.93921       59.92496562        1.34388377
       40.03890       58.24689850        1.21273093
       40.13860       54.61842706        1.17268555
       40.23829       54.83001228        1.21653183
       40.33798       55.35149451        1.26042906
       40.43768       57.05829727        1.33901052
       40.53737       58.44452042        1.25784148
       40.63706       58.73732219        1.28747741
       40.73676       61.91681993        1.31991250
       40.83645       62.69317535        1.33928505
       40.93614       63.83934288        1.37416631
       41.03584       65.56429302        1.31060026
       41.13553       75.96171027        1.41268876
       41.23522       88.63618197        1.56346855
       41.33492      102.24885977        1.75814909
       41.43461      126.20914496        2.01680306
       41.53430      145.06233251        2.02526592
       41.63400      173.18348864        2.26229999
       41.73369      189.36653186        2.31446323
       41.83338      201.15389130        2.44977412
       41.93308      199.62283286        2.41849014
       42.03277      197.93565457        2.20081353
       42.13247      212.04845480        2.39430134
       42.23216      256.00793566        2.63693211
       42.33185      324.94039221        3.19171568
       42.43155      416.23887783        3.56415651
       42.53124      528.12345258        3.89517247
       42.63093      613.28225864        4.21196900
       42.73063      654.81960624        4.37561828
       42.83032      618.50207689        4.32415305
       42.93001      555.13535445        3.93836789
       43.02971      426.96176286        3.25490432
       43.12940      298.11444405        2.76895335
       43.22909      200.79177881        2.38527898
       43.32879      146.28077765        2.14391950
       43.42848      106.39144803        1.78762730
       43.52817       84.92953306        1.52811642
       43.62787       74.94161765        1.43079252
       43.72756       67.16096768        1.38646255
       43.82725       61.68863092        1.38737491
       43.92695       60.95469899        1.25062351
       44.02664       57.08521411        1.20436159
       44.12633       56.94045801        1.24767769
       44.22603       56.37605692        1.29218707
       44.32572       55.57172954        1.35212752
       44.42541       58.53477072        1.32505423
       44.52511       57.71028892        1.28026354
       44.62480       58.71353509        1.30964445
       44.72449       58.15122188        1.26302855
       44.82419       61.35081446        1.45586145
       44.92388       67.33658582        1.27227105
       45.02357       75.15364792        1.35534681
       45.12327       80.30094934        1.44305181
       45.22296       93.88415452        1.60174682
       45.32265      113.22234357        1.94638467
       45.42235      132.16958272        1.91519793
       45.52204      167.40141965        2.13519080
       45.62174      208.33150987        2.42737657
       45.72143      260.94611239        2.72034667
       45.82112      295.56202913        3.17242719
       45.92082      317.88297699        2.79511494
       46.02051      301.42023672        2.77841953
       46.12020      272.07955780        2.64603995
       46.21990      216.96454018        2.47887989
       46.31959      168.92070948        2.35878651
       46.41928      129.07125572        1.90250859
       46.51898       97.27657019        1.65975795
       46.61867       76.15570370        1.46070235
       46.71836       67.29143438        1.40836305
       46.81806       61.29181750        1.39372730
       46.91775       55.58703962        1.15686193
       47.01744       57.88819012        1.20887774
       47.11714       58.32276664        1.24113741
       47.21683       60.30049589        1.29919740
       47.31652       64.38978429        1.46471578
       47.41622       72.17674806        1.46158754
       47.51591       85.85414765        1.59739284
       47.61560      103.03151123        1.73579072
       47.71530      130.96092384        1.97937911
       47.81499      152.55677734        2.19111834
       47.91468      189.14756806        2.13645909
       48.01438      215.87711724        2.28512424
       48.11407      219.83001944        2.39234114
       48.21376      219.39239077        2.49526080
       48.31346      193.33674425        2.42388734
       48.41315      166.63787795        2.09600658
       48.51284      126.57318681        1.88542822
       48.61254       98.04578654        1.65155270
       48.71223       79.97181861        1.51814921
       48.81192       68.18491576        1.39824778
       48.91162       58.54292395        1.16127685
       49.01131       54.46923247        1.15939059
       49.11100       52.97757350        1.18460829
       49.21070       51.13232535        1.22179503
       49.31039       51.53422192        1.26241103
       49.41009       50.56646160        1.18129717
       49.50978       48.97790198        1.18658470
       49.60947       48.97496089        1.19523478
       49.70917       49.63562117        1.24791573
       49.80886       50.13083792        1.22059608
       49.90855       47.02496131        1.07677245
       50.00825       49.38465729        1.12685840
       50.10794       51.57352283        1.17785893
       50.20763       48.60516700        1.19452644
       50.30733       49.31569873        1.26039618
       50.40702       53.01965437        1.22570021
       50.50671       53.05002273        1.22965302
       50.60641       55.54077079        1.26008137
       50.70610       54.16373919        1.28034108
       50.80579       58.82942076        1.31695459
       50.90549       55.23220876        1.15032672
       51.00518       53.39067904        1.14094049
       51.10487       55.60097995        1.20363921
       51.20457       54.42633203        1.26772169
       51.30426       57.13072041        1.29220255
       51.40395       56.41749187        1.23101016
       51.50365       58.35773576        1.26638475
       51.60334       56.30535703        1.26839132
       51.70303       60.24656108        1.39349820
       51.80273       60.23087413        1.27804723
       51.90242       60.97779138        1.20150473
       52.00211       61.54940640        1.21285599
       52.10181       62.37460153        1.25963956
       52.20150       62.25439727        1.38586364
       52.30119       63.21681602        1.34532625
       52.40089       63.78544016        1.33022933
       52.50058       61.89377475        1.33502169
       52.60027       61.33252208        1.34707984
       52.69997       59.09479938        1.44898326
       52.79966       56.61197170        1.19223540
       52.89935       58.66598812        1.17113239
       52.99905       64.14666051        1.24480821
       53.09874       74.78491224        1.38777803
       53.19844       88.46276029        1.72900471
       53.29813      102.83445948        1.65719168
       53.39782      125.11845119        1.89208733
       53.49752      145.47648566        2.05056998
       53.59721      158.52703946        2.13959243
       53.69690      164.95680192        2.39512097
       53.79660      179.00824895        2.09097508
       53.89629      171.49094002        2.02399784
       53.99598      151.60313736        1.94830047
       54.09568      133.05697612        1.90504002
       54.19537      115.00908773        1.93066554
       54.29506      108.59688135        1.72338011
       54.39476       96.24624920        1.63449407
       54.49445       89.41149595        1.57627869
       54.59414       84.97360996        1.55990992
       54.69384       80.95291475        1.62408591
       54.79353       79.63312429        1.38127504
       54.89322       76.68827298        1.35050072
       54.99292       74.34922069        1.36860389
       55.09261       69.15317285        1.37242212
       55.19230       67.20738049        1.45288792
       55.29200       62.58137048        1.30472178
       55.39169       61.26671123        1.33200218
       55.49138       59.26314361        1.30511363
       55.59108       55.09038369        1.29850596
       55.69077       56.70196263        1.35204880
       55.79046       57.62038945        1.19164399
       55.89016       55.20305745        1.16349409
       55.98985       53.26097634        1.15009168
       56.08954       56.22610657        1.22073613
       56.18924       58.32591218        1.34187797
       56.28893       64.60466863        1.29275919
       56.38862       75.96305146        1.45045990
       56.48832       83.76637788        1.54957881
       56.58801       98.28942884        1.72774891
       56.68770      106.72481770        1.85854464
       56.78740      112.51699410        1.63345643
       56.88709      116.12769464        1.67623868
       56.98679      112.99560008        1.65487465
       57.08648      103.22467387        1.67630613
       57.18617       95.24977264        1.66702944
       57.28587       83.52373618        1.45808197
       57.38556       72.47387209        1.44539975
       57.48525       64.32997556        1.38762039
       57.58495       59.89599646        1.36946799
       57.68464       54.69851736        1.31989923
       57.78433       55.85153018        1.16681063
       57.88403       54.81596441        1.16937660
       57.98372       53.62180050        1.17493650
       58.08341       51.12707608        1.24036623
       58.18311       54.15461325        1.30597936
       58.28280       52.03084981        1.20563612
       58.38249       52.64379794        1.26720233
       58.48219       50.56493603        1.26865454
       58.58188       54.80317830        1.33539644
       58.68157       53.06281829        1.28755041
       58.78127       53.69809284        1.13297070
       58.88096       54.42328457        1.12379488
       58.98065       56.00761902        1.18350997
       59.08035       57.09280676        1.27508866
       59.18004       60.43598997        1.33094229
       59.27973       61.05819528        1.26219294
       59.37943       61.84011410        1.31214291
       59.47912       68.57194589        1.43866837
       59.57881       70.26816717        1.52570588
       59.67851       76.91063577        1.48843226
       59.77820       84.15343739        1.43154611
       59.87789       89.15139719        1.46834580
       59.97759       94.14566772        1.57859047
       60.07728      101.16079529        1.77236243
       60.17697      105.83302151        1.72718627
       60.27667      107.58956255        1.69320060
       60.37636      102.41853453        1.68374913
       60.47605      100.72153697        1.74185647
       60.57575       98.97400916        1.89230129
       60.67544       92.79556389        1.57391343
       60.77514       86.30731649        1.44280154
       60.87483       77.87409506        1.34361034
       60.97452       72.35507513        1.36421002
       61.07422       67.77526068        1.48303045
       61.17391       66.62553650        1.27366635
       61.27360       64.18474302        1.29439953
       61.37330       63.81487974        1.33851412
       61.47299       66.30967842        1.42451649
       61.57268       67.47939652        1.63422111
       61.67238       70.46128850        1.36117980
       61.77207       71.32198965        1.33380163
       61.87176       69.13148930        1.29842863
       61.97146       68.88519913        1.34563141
       62.07115       69.70448186        1.53309847
       62.17084       65.98224885        1.30665793
       62.27054       64.82369241        1.35036416
       62.37023       63.37160035        1.38827231
       62.46992       59.00452698        1.38528382
       62.56962       59.98483241        1.56880637
       62.66931       57.70180772        1.23943371
       62.76900       59.67230806        1.22857263
       62.86870       60.11694725        1.20620561
       62.96839       65.89318123        1.30330387
       63.06808       74.24808018        1.53995684
       63.16778       81.16128981        1.42947109
       63.26747      100.75667273        1.64921279
       63.36716      116.11296065        1.83819131
       63.46686      140.22080957        2.08225297
       63.56655      154.69534752        2.32455387
       63.66624      175.91197190        2.10829905
       63.76594      199.38804084        2.18185550
       63.86563      209.75933180        2.23150583
       63.96532      206.44248750        2.31604873
       64.06502      196.00527928        2.41669860
       64.16471      176.78804036        2.12160044
       64.26440      152.53567477        2.05001528
       64.36410      129.41793347        1.92517938
       64.46379      108.63922216        1.86437681
       64.56349       92.87354244        1.75377657
       64.66318       78.28746320        1.40884581
       64.76287       67.33451656        1.29017786
       64.86257       60.65367753        1.22248913
       64.96226       61.28557397        1.28728025
       65.06195       56.21574265        1.33294060
       65.16165       53.96572638        1.17803488
       65.26134       53.00154863        1.19475965
       65.36103       52.91440284        1.24567803
       65.46073       53.92359326        1.29886310
       65.56042       55.49881891        1.37633106
       65.66011       54.10374496        1.18486487
       65.75981       56.11044202        1.19465057
       65.85950       57.78979580        1.20472507
       65.95919       59.93522596        1.28437534
       66.05889       64.23904001        1.37555216
       66.15858       69.61861961        1.36192249
       66.25827       77.56300326        1.48698288
       66.35797       94.49932426        1.71064508
       66.45766      108.83244618        1.95128953
       66.55735      122.21961151        2.06788973
       66.65705      137.41872151        1.94566284
       66.75674      152.39216548        1.99722539
       66.85643      166.91653010        2.06712777
       66.95613      171.48707186        2.17857855
       67.05582      174.81990724        2.21626598
       67.15551      169.22407592        2.07459676
       67.25521      153.09644136        2.07018952
       67.35490      144.08015308        2.11391244
       67.45459      124.33877092        2.07008040
       67.55429      108.48868804        1.85206914
       67.65398       91.55042420        1.52451815
       67.75367       79.59344039        1.40954240
       67.85337       73.15064257        1.36776464
       67.95306       76.98750887        1.50069633
       68.05275       77.97286473        1.43011035
       68.15245       85.72100781        1.48690980
       68.25214       96.90420884        1.67849563
       68.35184      105.96348409        1.82963752
       68.45153      117.15411047        2.11849702
       68.55122      122.82899030        1.86888268
       68.65092      128.08324485        1.77894706
       68.75061      131.25342643        1.81945553
       68.85030      132.10242142        1.86046218
       68.95000      129.66842799        2.08963495
       69.04969      116.16638939        1.66962066
       69.14938      103.79046919        1.62229909
       69.24908       88.79815943        1.60188612
       69.34877       77.87989523        1.55120174
       69.44846       71.22207608        1.72043486
       69.54816       64.32885427        1.27464145
       69.64785       59.61461167        1.20968643
       69.74754       54.10224165        1.16383422
       69.84724       51.77374291        1.16814361
       69.94693       51.74691499        1.31799804
       70.04662       50.61519705        1.07189350
       70.14632       48.15988930        1.08715948
       70.24601       49.24845707        1.17718464
       70.34570       47.84347694        1.22772931
       70.44540       48.06435754        1.44990191
       70.54509       49.41241545        1.15074718
       70.64478       46.90733400        1.11950443
       70.74448       50.92128995        1.18507612
       70.84417       50.98907853        1.23055528
       70.94386       51.27546097        1.35460644
       71.04356       52.48385940        1.13411295
       71.14325       53.31173141        1.18783737
       71.24294       54.30867505        1.26147234
       71.34264       56.94837536        1.36984332
       71.44233       54.03392275        1.48881615
       71.54202       56.15310862        1.23571491
       71.64172       54.32007724        1.18217946
       71.74141       51.48869187        1.12995867
       71.84110       52.53239830        1.18152414
       71.94080       54.41296878        1.31042183
       72.04049       51.51221455        1.07906328
       72.14019       51.77385007        1.12714272
       72.23988       52.46774112        1.18724771
       72.33957       52.90590759        1.33170969
       72.43927       53.71355538        1.47713476
       72.53896       52.69831400        1.17305497
       72.63865       52.55785564        1.14507327
       72.73835       55.35719928        1.14943972
       72.83804       58.84242508        1.25154515
       72.93773       60.10009093        1.34360725
       73.03743       64.71487089        1.21040898
       73.13712       68.48929555        1.31333869
       73.23681       67.45955270        1.36931934
       73.33651       69.02023785        1.52414718
       73.43620       72.46450243        1.69176227
       73.53589       66.24534619        1.30456476
       73.63559       68.13702858        1.30237072
       73.73528       68.06650029        1.29577892
       73.83497       66.10146102        1.35367068
       73.93467       66.66568675        1.43151813
       74.03436       61.00986712        1.21171646
       74.13405       59.15928230        1.24384609
       74.23375       56.31590141        1.26399795
       74.33344       59.29308240        1.42794531
       74.43313       55.81043478        1.43737357
       74.53283       55.84496094        1.22162782
       74.63252       53.95816730        1.19203009
       74.73221       57.25100704        1.22199540
       74.83191       61.14419305        1.33980697
       74.93160       64.29297438        1.38948470
       75.03129       63.98767163        1.23230950
       75.13099       73.82377929        1.37144689
       75.23068       87.09156529        1.55440163
       75.33037       95.48461322        1.78946823
       75.43007      106.49903479        1.91775089
       75.52976      125.41806188        1.80868679
       75.62945      143.12789978        1.93149199
       75.72915      158.43847197        2.02502562
       75.82884      162.49043846        2.20813817
       75.92854      163.72689119        2.08073731
       76.02823      175.34691159        2.02022607
       76.12792      172.48263081        2.09394655
       76.22762      170.57837079        2.19682141
       76.32731      161.14399759        2.41066632
       76.42700      151.86192804        2.20802236
       76.52670      137.24466020        1.93552642
       76.62639      119.24153761        1.78025652
       76.72608      102.54959968        1.62269894
       76.82578       99.08809090        1.83780824
       76.92547       94.79500728        1.43961440
       77.02516       94.79568139        1.49210748
       77.12486      106.46767166        1.66179752
       77.22455      119.24939345        1.87344523
       77.32424      128.32489683        2.38825405
       77.42394      140.19876479        1.99401043
       77.52363      146.91632401        1.97291705
       77.62332      162.49113816        2.06643122
       77.72302      169.77147846        2.11746354
       77.82271      177.55490405        2.54017743
       77.92240      177.33665840        1.94388627
       78.02210      174.59593697        2.08105811
       78.12179      166.54481168        2.17024374
       78.22148      156.09425950        2.22103361
       78.32118      141.23631657        2.45026551
       78.42087      130.15248067        1.85054885
       78.52056      110.08485554        1.75637871
       78.62026       94.28969538        1.61193806
       78.71995       82.81784038        1.51524140
       78.81964       71.09536062        1.56758555
       78.91934       65.83229159        1.16868427
       79.01903       62.30736965        1.24642475
       79.11872       56.62926923        1.23645154
       79.21842       59.11919802        1.34784663
       79.31811       56.16724532        1.47971292
       79.41780       56.93371464        1.20854952
       79.51750       57.61126001        1.23533371
       79.61719       57.97154415        1.24285281
       79.71689       58.80591859        1.29966634
       79.81658       61.78592367        1.41233027
       79.91627       61.27833614        1.19221421
       80.01597       62.57187267        1.23834535
       80.11566       62.12278203        1.28984615
       80.21535       64.25987576        1.40240522
       80.31505       64.54771909        1.67086921
       80.41474       65.92025386        1.29756327
       80.51443       67.10968938        1.30353624
       80.61413       66.34661513        1.33904335
       80.71382       72.24083828        1.44569308
       80.81351       73.42398885        1.63777404
       80.91321       75.11539132        1.22157098
       81.01290       80.22763542        1.36292224
       81.11259       95.72482939        1.60743537
       81.21229      109.36398590        1.85887167
       81.31198      118.56641406        2.15926809
       81.41167      143.20880915        1.85908942
       81.51137      164.23612350        2.04892530
       81.61106      190.67330220        2.30666389
       81.71075      210.11575290        2.50718927
       81.81045      225.79605298        2.75444685
       81.91014      263.08265760        2.28847239
       82.00983      296.55155570        2.59931130
       82.10953      328.85458951        3.06496603
       82.20922      342.67862521        3.48082547
       82.30891      357.99897995        3.73228094
       82.40861      375.61108359        3.11064647
       82.50830      369.38425017        3.07612006
       82.60799      371.44271387        3.32309488
       82.70769      349.30253299        3.50431879
       82.80738      343.78521599        3.32109097
       82.90707      326.25586766        2.62574295
       83.00677      297.66995593        2.67010115
       83.10646      284.44330636        3.07029906
       83.20615      256.73332476        3.24427612
       83.30585      236.37941432        2.94762697
       83.40554      194.55674612        2.22070830
       83.50524      169.39288974        2.02079228
       83.60493      132.16364026        1.96448602
       83.70462      119.65423422        2.10737719
       83.80432      109.05662313        1.75800096
       83.90401       88.60799348        1.32873555
       84.00370       76.33127886        1.28608627
       84.10340       67.48967862        1.44491630
       84.20309       64.69678533        1.71750320
       84.30278       66.21526610        1.41328394
       84.40248       61.53966245        1.20234515
       84.50217       62.58816441        1.18963321
       84.60186       62.29587686        1.34203159
       84.70156       65.30369853        1.79825529
       84.80125       62.38005412        1.22350506
       84.90094       62.35946279        1.09891443
       85.00064       62.46502756        1.13317201
       85.10033       61.50670985        1.33070913
       85.20002       63.69693710        2.32276022
       85.29972       63.83433929        1.22659725
       85.39941       65.39943612        1.26588035
       85.49910       63.89001571        1.21668193
       85.59880       64.52911616        1.37497180
       85.69849       68.04696945        2.53525944
       85.79818       66.33668821        1.18009691
       85.89788       67.72261928        1.16392826
       85.99757       66.16026586        1.18199860
       86.09726       65.23105053        1.34750097
       86.19696       68.89289505        2.66007422
       86.29665       66.50019778        1.23666479
       86.39634       66.20534089        1.25532174
       86.49604       63.17779003        1.20760909
       86.59573       62.26080232        1.27727801
       86.69542       63.35624216        2.69402411
       86.79512       57.96483411        1.06947084
       86.89481       59.02705040        1.06405718
       86.99451       59.01068543        1.10278753
       87.09420       55.84203214        1.19629801
       87.19389       52.53248644        2.74819028
       87.29359       53.10058262        1.11979606
       87.39328       50.72676198        1.10917440
       87.49297       51.69440056        1.08701383
       87.59267       49.66303654        1.08631567
       87.69236       46.96174542        3.16063478
       87.79205       51.55933611        1.03181370
       87.89175       50.82895335        1.01620527
       87.99144       50.50162914        1.05547281
       88.09113       50.68068335        1.12383493
       88.19083       54.88832473        6.18989690
       88.29052       49.58517908        1.11858389
       88.39021       50.29355991        1.13408304
       88.48991       50.27818763        1.08823195
       88.58960       51.06447228        1.06209650
       88.68929       52.64030811        8.35416025
       88.78899       50.16964384        1.01611831
       88.88868       50.68128005        0.99899915
       88.98837       48.56445632        1.01704498
       89.08807       48.16660771        1.03744264
       89.18776       50.66678258        8.65828064
       89.28745       49.24942909        1.06587552
       89.38715       50.88586321        1.09463059
       89.48684       52.16238830        1.08461047
       89.58653       55.10817826        1.09227885
       89.68623       65.87179051        9.68477007
       89.78592       57.86687433        1.08768810
       89.88561       62.38043527        1.10731442
       89.98531       65.64959737        1.16493362
       90.08500       75.83126928        1.29896574
       90.18469       83.77318205       11.38986720
       90.28439       82.14947494        1.38108648
       90.38408       88.36460543        1.45670750
       90.48377       96.74749290        1.49602138
       90.58347       99.57973110        1.49401405
       90.68316       87.42449128       10.89955632
       90.78286      101.31966471        1.44262814
       90.88255      105.09489655        1.42982197
       90.98224      104.32670329        1.47387703
       91.08194      105.46241368        1.53055587
       91.18163       99.34499947       11.85132204
       91.28132      102.69614546        1.55489988
       91.38102      100.83998903        1.58157120
       91.48071       92.96371141        1.48087883
       91.58040       84.72969981        1.36690749
       91.68010       84.50282970       10.32717566
       91.77979       75.54160306        1.23859814
       91.87948       71.22159219        1.18391292
       91.97918       64.41527524        1.16888806
       92.07887       64.24975235        1.21604062
       92.17856       56.60002833        8.67583023
       92.27826       61.56963273        1.22933380
       92.37795       62.70107350        1.27005806
       92.47764       62.92613141        1.20783818
       92.57734       69.90506134        1.23529875
       92.67703       71.60164246        8.11584677
       92.77672       75.03114092        1.23367933
       92.87642       85.54112021        1.29257482
       92.97611       90.65154909        1.38968696
       93.07580      101.52305059        1.67912811
       93.17550       95.38977373        3.05990396
       93.27519      100.26094871        1.53797121
       93.37488      106.21468166        1.53908704
       93.47458      105.99061801        1.55435435
       93.57427      112.97723222        1.85576462
       93.67396      112.83688904        2.50633734
       93.77366      110.38688080        1.53555117
       93.87335      109.25370612        1.45914578
       93.97304      102.45944008        1.47222609
       94.07274       94.21716233        1.83236575
       94.17243       96.85976389        2.12008081
       94.27212       91.52307786        1.53466520
       94.37182       87.55973171        1.46273597
       94.47151       77.83068547        1.32026086
       94.57121       75.30469700        1.71377273
       94.67090       73.19826446        1.70907535
       94.77059       68.40471433        1.28413143
       94.87029       64.02276081        1.12951757
       94.96998       61.13984419        1.11766827
       95.06967       60.84385289        1.28529929
       95.16937       59.26255885        1.73634161
       95.26906       60.01044496        1.34984295
       95.36875       60.49882955        1.22984169
       95.46845       56.76770382        1.14475653
       95.56814       58.41823466        1.33635496
       95.66783       59.65189455        1.51716978
       95.76753       56.57124978        1.22080097
       95.86722       54.70877286        1.02113155
       95.96691       55.19722037        1.06390715
       96.06661       54.98886732        1.36030255
       96.16630       51.06654753        1.39773773
       96.26599       50.85489490        1.25264611
       96.36569       52.32819001        1.14019748
       96.46538       51.87208210        1.09556759
       96.56507       49.21902929        1.31705920
       96.66477       47.86142569        1.26549600
       96.76446       45.76118965        1.10569810
       96.86415       48.15703385        0.98258408
       96.96385       46.90571861        1.00153980
       97.06354       47.92341243        1.36894888
       97.16323       51.03665744        1.35092699
       97.26293       49.66420373        1.25195331
       97.36262       50.56973319        1.16990744
       97.46231       48.85266534        1.05779995
       97.56201       51.33323886        1.37964288
       97.66170       51.28937332        1.23864588
       97.76139       53.43268521        1.14865342
       97.86109       54.62359429        1.05022394
       97.96078       52.24829221        1.04948486
       98.06047       55.53792562        1.50307845
       98.16017       57.80794772        1.36332366
       98.25986       53.37752714        1.25112549
       98.35956       55.01351625        1.19920848
       98.45925       58.13777569        1.15080832
       98.55894       59.89514478        1.52379332
       98.65864       60.02316414        1.30883583
       98.75833       61.85914014        1.24157289
       98.85802       63.71880095        1.17665000
       98.95772       67.46264902        1.20280088
       99.05741       72.40387757        1.73015302
       99.15710       69.79543091        1.46074396
       99.25680       76.70029842        1.48389279
       99.35649       78.69113830        1.43161750
       99.45618       81.23338896        1.35563745
       99.55588       88.08689036        1.88669846
       99.65557       89.00642588        1.56465681
       99.75526       88.51973935        1.46246182
       99.85496       87.38828934        1.38295883
       99.95465       89.84552567        1.37487347
      100.05434       87.48658849        1.93257263
      100.15404       92.04968244        1.66997239
      100.25373       90.39339427        1.63496593
      100.35342       93.20021871        1.65383021
      100.45312       91.91552242        1.49861756
      100.55281       85.42324002        1.89707870
      100.65250       82.64504142        1.51998751
      100.75220       82.10925340        1.40334029
      100.85189       75.31899317        1.28394751
      100.95158       73.27071915        1.23244530
      101.05128       73.23235746        1.75663538
      101.15097       69.22686103        1.41135881
      101.25066       70.60486331        1.40831732
      101.35036       72.30493383        1.43761237
      101.45005       71.21345888        1.34158469
      101.54974       72.14128563        1.68189407
      101.64944       75.74188750        1.40622116
      101.74913       78.12798362        1.34578537
      101.84882       81.79869065        1.34060862
      101.94852       87.37846437        1.45980728
      102.04821       88.48363860        1.76944602
      102.14791       88.82878820        1.59780348
      102.24760       92.58398112        1.61766497
      102.34729       89.78664329        1.58638217
      102.44699       89.56227702        1.61193295
      102.54668       93.38438644        1.72737980
      102.64637       94.26193802        1.55004153
      102.74607       97.96571133        1.50512826
      102.84576       96.37049915        1.46439497
      102.94545       97.54932541        1.67811227
      103.04515       95.16892580        1.75453782
      103.14484       91.21253165        1.60461522
      103.24453       89.48173553        1.56470313
      103.34423       89.80150414        1.55482523
      103.44392       89.23564671        1.67888396
      103.54361       87.47137171        1.61464386
      103.64331       83.93107478        1.43952616
      103.74300       84.92390907        1.38125996
      103.84269       81.81944731        1.33216367
      103.94239       80.11766268        1.58405639
      104.04208       80.67977003        1.53787198
      104.14177       82.71009486        1.51502953
      104.24147       80.75095682        1.49611444
      104.34116       81.87005290        1.51585809
      104.44085       81.94564457        1.72244602
      104.54055       80.75479470        1.54804877
      104.64024       80.07597988        1.44899384
      104.73993       78.99848193        1.37333598
      104.83963       76.28249683        1.30005420
      104.93932       74.73273713        1.55987254
      105.03901       72.48500883        1.44739994
      105.13871       69.33254355        1.36287622
      105.23840       67.72030608        1.34608721
      105.33809       66.07696717        1.33742620
      105.43779       62.18739742        1.50944756
      105.53748       62.18872338        1.35367247
      105.63717       61.31621349        1.23202683
      105.73687       57.43676108        1.13464763
      105.83656       54.92252212        1.08106093
      105.93626       51.76343546        1.32984232
      106.03595       52.26127717        1.21107540
      106.13564       51.53792107        1.16236603
      106.23534       50.87371049        1.16904526
      106.33503       49.98473147        1.17045598
      106.43472       49.08035549        1.37112735
      106.53442       50.08289457        1.20477455
      106.63411       48.19636501        1.07353697
      106.73380       46.03083160        0.99985488
      106.83350       49.29805681        1.01940021
      106.93319       48.71332610        1.31357904
      107.03288       51.71114587        1.19962037
      107.13258       48.44781469        1.12692880
      107.23227       53.24360620        1.19873771
      107.33196       50.50792429        1.16421894
      107.43166       52.13142731        1.42124493
      107.53135       54.62969788        1.25539751
      107.63104       56.26122980        1.16012755
      107.73074       60.07000436        1.15025160
      107.83043       62.38378259        1.15747208
      107.93012       62.90136187        1.53754921
      108.02982       66.40332511        1.38287902
      108.12951       67.13987760        1.32236883
      108.22920       63.08421261        1.26107384
      108.32890       70.80812206        1.32366896
      108.42859       73.13539086        1.70746561
      108.52828       72.75234199        1.44453752
      108.62798       75.08229757        1.33076136
      108.72767       74.30804678        1.27067252
      108.82736       74.99777802        1.30471529
      108.92706       70.84758852        1.60580710
      109.02675       69.21815540        1.38848368
      109.12644       72.56761207        1.38774376
      109.22614       70.89918100        1.37269673
      109.32583       73.18372580        1.51984306
      109.42552       73.56225362        1.60731206
      109.52522       71.96962492        1.43424755
      109.62491       70.50718450        1.35021028
      109.72461       68.77065369        1.27480424
      109.82430       64.02791912        1.14884713
      109.92399       60.47415949        1.45148849
      110.02369       61.00971375        1.27671930
      110.12338       58.29494721        1.23974061
      110.22307       58.52394323        1.23288688
      110.32277       56.04013032        1.23186405
      110.42246       56.57491160        1.50496405
      110.52215       52.83233576        1.23160636
      110.62185       55.20168650        1.18657812
      110.72154       52.23282778        1.07672762
      110.82123       53.60702333        1.12659111
      110.92093       55.15531871        1.33288579
      111.02062       54.84459526        1.22790513
      111.12031       53.62292850        1.22316526
      111.22001       55.61276361        1.22240361
      111.31970       55.35406794        1.32354445
      111.41939       57.34004768        1.39401110
      111.51909       55.73240125        1.24696632
      111.61878       56.50395255        1.18279909
      111.71847       60.57837235        1.13960838
      111.81817       61.98909158        1.25125554
      111.91786       65.59020295        1.35467103
      112.01755       68.68165460        1.35372013
      112.11725       69.83987534        1.37548183
      112.21694       73.50843396        1.40498927
      112.31663       75.24641457        1.56651986
      112.41633       75.95477545        1.54619676
      112.51602       78.31499377        1.44592910
      112.61571       80.05211547        1.39460384
      112.71541       83.13973090        1.33950892
      112.81510       84.92535314        1.51809295
      112.91479       89.31421496        1.58610898
      113.01449       90.39039598        1.56258777
      113.11418       88.99861503        1.54525329
      113.21387       88.06588094        1.53009185
      113.31357       89.11397428        1.70943008
      113.41326       90.51062421        1.63731356
      113.51296       91.76711656        1.55086155
      113.61265       93.74840839        1.51259916
      113.71234       92.89017946        1.43812139
      113.81204       94.35408254        1.66058225
      113.91173       89.94738206        1.57086679
      114.01142       88.04103371        1.53837415
      114.11112       86.22633957        1.52153278
      114.21081       84.87758374        1.52043278
      114.31050       86.18082248        1.73749735
      114.41020       82.82143037        1.57375413
      114.50989       78.73237112        1.43625510
      114.60958       77.16498906        1.37590624
      114.70928       77.29768243        1.32817889
      114.80897       74.85645377        1.48229392
      114.90866       73.27989960        1.38322519
      115.00836       70.07565591        1.34617148
      115.10805       69.71539063        1.35000293
      115.20774       70.55499660        1.37870099
      115.30744       68.28289814        1.55717896
      115.40713       68.83115646        1.41610770
      115.50682       69.49284074        1.34335687
      115.60652       69.80338069        1.29759303
      115.70621       70.34448200        1.25192837
      115.80590       72.05735141        1.47823924
      115.90560       72.91996497        1.34786335
      116.00529       74.47969027        1.37747672
      116.10498       81.31929435        1.45472484
      116.20468       85.01814931        1.52179010
      116.30437       87.75659374        1.84322866
      116.40406       88.07405701        1.60829363
      116.50376       93.09199520        1.56280025
      116.60345      101.01454001        1.56313645
      116.70314      110.30989505        1.58443652
      116.80284      124.28893124        1.99932580
      116.90253      129.17563402        1.83382361
      117.00222      135.43815155        1.86330655
      117.10192      143.35900396        1.96892660
      117.20161      148.43665382        2.02824224
      117.30131      152.59744829        2.46117716
      117.40100      156.15259717        2.09333870
      117.50069      164.48981312        2.04115017
      117.60039      175.27663472        2.01718053
      117.70008      181.75589028        1.99044061
      117.79977      180.84803659        2.43290109
      117.89947      188.54300530        2.16010047
      117.99916      191.73091784        2.20450683
      118.09885      188.86065532        2.22874298
      118.19855      194.63463584        2.37025046
      118.29824      198.05834236        2.62148403
      118.39793      200.93854060        2.39758825
      118.49763      196.00073246        2.23408875
      118.59732      201.65288962        2.18827754
      118.69701      196.66710698        2.25087033
      118.79671      194.27141533        2.41536825
      118.89640      188.21351564        2.21612119
      118.99609      180.03041794        2.16447235
      119.09579      180.67519188        2.19366824
      119.19548      175.81556983        2.36408060
      119.29517      169.58235544        2.41164451
      119.39487      166.76724440        2.19824667
      119.49456      159.13081391        2.02302791
      119.59425      149.51662561        1.90376494
      119.69395      143.52471515        1.96742371
      119.79364      140.67406070        1.96828539
      119.89333      132.42601873        1.84772165
      119.99303      124.60771715        1.74949053
      120.09272      130.06596980        1.82848311
      120.19241      126.63024293        2.02768010
      120.29211      124.33647298        1.98858495
      120.39180      125.56208303        1.90660586
      120.49149      122.39679854        1.75055162
      120.59119      120.11645415        1.68306563
      120.69088      115.39027308        1.77553206
      120.79057      114.73637705        1.73244640
      120.89027      115.84431895        1.70911730
      120.98996      115.86299883        1.69612012
      121.08966      115.64059801        1.70716318
      121.18935      116.64051524        1.96536220
      121.28904      120.70538852        1.94890978
      121.38874      114.17549691        1.79202026
      121.48843      117.93824827        1.72046963
      121.58812      117.78200400        1.63979800
      121.68782      120.27943403        1.83593735
      121.78751      122.45280458        1.76534092
      121.88720      122.44862643        1.74274025
      121.98690      120.49194887        1.74159351
      122.08659      119.46930442        1.76885242
      122.18628      118.13503307        2.04038712
      122.28598      120.58262794        1.93870014
      122.38567      117.26888004        1.83085608
      122.48536      113.56719847        1.70409347
      122.58506      116.32202864        1.63357175
      122.68475      110.57375016        1.80444951
      122.78444      111.57227660        1.70680238
      122.88414      106.28450144        1.65141858
      122.98383      105.77788638        1.68120480
      123.08352      110.16305190        1.70129035
      123.18322      101.00232742        1.89934092
      123.28291      100.06824026        1.71815399
      123.38260       94.44311466        1.61103450
      123.48230       96.10765037        1.56645048
      123.58199       95.70982737        1.46106542
      123.68168       90.87245517        1.62427222
      123.78138       90.74453717        1.46438831
      123.88107       88.89927367        1.41581888
      123.98076       88.31066333        1.43719799
      124.08046       87.34823501        1.41423743
      124.18015       88.29918512        1.60946456
      124.27984       87.09608183        1.43205709
      124.37954       80.62112424        1.29983795
      124.47923       78.82731391        1.25469504
      124.57893       75.23955863        1.30580972
