        5.04651       57.17756807        2.58077472
        5.14621       59.87724823        2.54550959
        5.24590       52.62738594        2.35161390
        5.34559       53.80027493        2.18080883
        5.44529       54.26095873        2.38269655
        5.54498       52.37900008        1.96907713
        5.64467       53.66304529        1.97573548
        5.74437       55.05634032        1.80656499
        5.84406       48.69713794        1.71903171
        5.94375       53.31524868        1.79657738
        6.04345       50.08497531        1.69180839
        6.14314       50.86298318        1.56106805
        6.24283       49.95919059        1.59815739
        6.34253       54.00259516        1.58502249
        6.44222       50.81197054        1.61873550
        6.54191       49.49596133        1.51344422
        6.64161       48.40388016        1.41778412
        6.74130       48.64942630        1.42712922
        6.84099       50.07797925        1.43751988
        6.94069       47.96925907        1.42800786
        7.04038       50.42337767        1.35156904
        7.14007       51.72712191        1.36615501
        7.23977       51.02235323        1.33306110
        7.33946       47.64431273        1.30773946
        7.43915       49.81922218        1.31990626
        7.53885       46.44776234        1.25079945
        7.63854       50.51553838        1.24691464
        7.73823       48.07922243        1.26302937
        7.83793       47.48723756        1.21467505
        7.93762       48.08824360        1.27510092
        8.03732       48.25744297        1.14556085
        8.13701       49.95694167        1.16036619
        8.23670       48.88734530        1.16403042
        8.33640       47.76206402        1.15082612
        8.43609       47.71665964        1.20256711
        8.53578       48.21131705        1.12593157
        8.63548       47.15195746        1.10065348
        8.73517       46.46573629        1.07176450
        8.83486       48.19185995        1.09421459
        8.93456       46.69377763        1.07148469
        9.03425       46.50073762        1.03794921
        9.13394       46.98754643        1.04535038
        9.23364       46.09221851        1.05042716
        9.33333       47.20212478        1.08468428
        9.43302       46.69457881        1.07921908
        9.53272       48.69154599        1.06489599
        9.63241       47.73999683        1.08420706
        9.73210       48.27108996        1.08805616
        9.83180       48.14858577        1.13230233
        9.93149       48.22878414        1.12513632
       10.03118       48.46183734        1.08521756
       10.13088       46.76872747        1.04048421
       10.23057       48.61411337        1.11095958
       10.33026       49.76525174        1.16192819
       10.42996       49.02667198        1.13744268
       10.52965       48.46017102        1.09515523
       10.62934       50.78732607        1.12392829
       10.72904       50.49819047        1.13728764
       10.82873       48.39007492        1.10760354
       10.92842       51.02918810        1.15657843
       11.02812       50.26242637        1.09354570
       11.12781       50.62608337        1.13687620
       11.22750       50.38464254        1.14545172
       11.32720       49.14757480        1.16168123
       11.42689       51.83041805        1.15168554
       11.52658       52.14010515        1.14136702
       11.62628       52.98349625        1.16307960
       11.72597       55.55174801        1.21633983
       11.82567       57.94125558        1.27687531
       11.92536       59.61746253        1.21215674
       12.02505       66.70152911        1.28844352
       12.12475       71.99583313        1.33763207
       12.22444       75.51461079        1.45280261
       12.32413       88.71423150        1.59933372
       12.42383       99.58057709        1.60878849
       12.52352      114.12303736        1.71222868
       12.62321      132.88195115        1.90084240
       12.72291      157.07027692        2.01204165
       12.82260      175.20487730        2.31049892
       12.92229      198.35045210        2.23360188
       13.02199      222.50321216        2.34764164
       13.12168      254.86364242        2.55745167
       13.22137      282.89818606        2.78254312
       13.32107      305.97277327        2.98721932
       13.42076      334.99271643        3.00967821
       13.52045      353.90745585        3.13102491
       13.62015      355.72941711        3.04193840
       13.71984      348.89628968        3.13994041
       13.81953      317.17724607        3.04338867
       13.91923      283.51104868        2.70242492
       14.01892      221.25073356        2.32275610
       14.11861      171.82683204        2.13491618
       14.21831      136.32818173        1.90301820
       14.31800      106.71720834        1.77192046
       14.41769       85.72737130        1.52908836
       14.51739       72.28689808        1.36964618
       14.61708       59.08946362        1.24108026
       14.71677       55.36266935        1.22086146
       14.81647       54.03275728        1.26348195
       14.91616       49.44792415        1.11137063
       15.01585       51.28769104        1.15234326
       15.11555       47.69828244        1.12402757
       15.21524       48.44827590        1.16758615
       15.31493       48.85185317        1.20072945
       15.41463       48.24534878        1.15531469
       15.51432       47.50585256        1.11087565
       15.61402       47.23617373        1.13575726
       15.71371       48.46898026        1.14262975
       15.81340       47.49645801        1.17664366
       15.91310       48.03614397        1.14979226
       16.01279       46.91914174        1.08799669
       16.11248       46.21075147        1.10871996
       16.21218       48.94095834        1.17273480
       16.31187       48.15773610        1.16612542
       16.41156       49.36206421        1.15868193
       16.51126       48.10549416        1.16312814
       16.61095       49.36208925        1.13612509
       16.71064       49.36332175        1.17205953
       16.81034       49.87054942        1.18165201
       16.91003       53.07733328        1.18402834
       17.00972       53.89665748        1.14543286
       17.10942       56.98675373        1.24500532
       17.20911       60.43221089        1.29355301
       17.30880       64.29507067        1.34599790
       17.40850       69.52328557        1.39955081
       17.50819       72.70337856        1.38983299
       17.60788       74.50745662        1.45073493
       17.70758       72.94005850        1.44122810
       17.80727       72.89508265        1.45856996
       17.90696       71.25874096        1.34826555
       18.00666       68.49809042        1.34498072
       18.10635       64.44852886        1.26880536
       18.20604       62.65220872        1.37230505
       18.30574       58.36130676        1.26213539
       18.40543       55.78687403        1.20334841
       18.50512       53.58365728        1.21647517
       18.60482       54.65372744        1.20933917
       18.70451       50.27562845        1.22553767
       18.80420       51.47257102        1.16497955
       18.90390       50.44015317        1.14088465
       19.00359       48.31111580        1.08727923
       19.10328       49.70609708        1.16687576
       19.20298       49.19017036        1.19690247
       19.30267       45.68484228        1.10756237
       19.40237       47.89258949        1.12126110
       19.50206       48.17157226        1.15280606
       19.60175       46.59228568        1.12097627
       19.70145       46.63782214        1.17602386
       19.80114       46.03654323        1.10815121
       19.90083       46.14584462        1.07197641
       20.00053       46.69991891        1.09754882
       20.10022       49.08642309        1.13369589
       20.19991       49.11166047        1.21235969
       20.29961       48.39528409        1.14027974
       20.39930       50.29311211        1.19761844
       20.49899       49.70739154        1.16991546
       20.59869       49.44255684        1.18811698
       20.69838       54.31252335        1.29139752
       20.79807       52.77080151        1.21406098
       20.89777       57.33587214        1.23705389
       20.99746       54.17457962        1.21428811
       21.09715       57.69972740        1.32015383
       21.19685       56.33488320        1.29758554
       21.29654       57.21337830        1.27565799
       21.39623       57.85708174        1.28291035
       21.49593       56.49943085        1.24958920
       21.59562       54.12468589        1.25239309
       21.69531       49.21093986        1.24190194
       21.79501       46.99072685        1.11008226
       21.89470       47.13461277        1.08676915
       21.99439       46.50461538        1.12522453
       22.09409       45.63256221        1.11735221
       22.19378       47.04057765        1.20484518
       22.29347       43.36392463        1.07724210
       22.39317       45.29607823        1.12957822
       22.49286       45.97668409        1.13715054
       22.59255       47.04416128        1.16384473
       22.69225       47.91781517        1.23783500
       22.79194       47.22362532        1.10358218
       22.89163       51.84791248        1.13392895
       22.99133       55.50293597        1.20590601
       23.09102       61.51642648        1.31876420
       23.19072       64.16174370        1.35012265
       23.29041       65.80076224        1.35031259
       23.39010       66.78316078        1.37465397
       23.48980       68.74051700        1.39981310
       23.58949       63.25925847        1.36059001
       23.68918       59.93563013        1.39249204
       23.78888       55.23635564        1.19114846
       23.88857       52.89828946        1.18082282
       23.98826       47.92630389        1.14886538
       24.08796       46.05428165        1.10418872
       24.18765       45.09615297        1.17073482
       24.28734       46.03261699        1.12620530
       24.38704       44.56823845        1.12661017
       24.48673       45.16821688        1.13013593
       24.58642       44.09299052        1.15350617
       24.68612       45.58984496        1.17143415
       24.78581       43.15453399        1.05053577
       24.88550       45.46708051        1.07796439
       24.98520       46.77197116        1.13381782
       25.08489       44.32421338        1.12569239
       25.18458       44.46049177        1.15110997
       25.28428       45.70606148        1.12494668
       25.38397       47.38819463        1.13996380
       25.48366       47.77238826        1.15143825
       25.58336       54.94303481        1.28738732
       25.68305       61.76365897        1.33901395
       25.78274       71.63618115        1.36142121
       25.88244       87.16780158        1.54029799
       25.98213      105.50700712        1.70908996
       26.08182      131.70910777        1.96073764
       26.18152      154.01033276        2.17230867
       26.28121      178.35337502        2.21215824
       26.38090      193.34778504        2.32324513
       26.48060      200.78693432        2.43336505
       26.58029      190.13553230        2.46984006
       26.67998      169.01775954        2.19856354
       26.77968      143.88214958        2.00365791
       26.87937      108.05572593        1.71023571
       26.97907       88.23717425        1.53207509
       27.07876       81.05324976        1.58099296
       27.17845       75.97845219        1.46262503
       27.27815       76.78512866        1.43594568
       27.37784       82.67751249        1.54836092
       27.47753       82.24773377        1.52147683
       27.57723       84.07522566        1.61153787
       27.67692       84.28719657        1.57500714
       27.77661       78.79353719        1.45325717
       27.87631       71.81329517        1.36411733
       27.97600       61.74882550        1.29308094
       28.07569       59.49071417        1.34328044
       28.17539       52.84424914        1.21175208
       28.27508       51.94828933        1.20194406
       28.37477       48.77416568        1.19223415
       28.47447       48.43795859        1.17882473
       28.57416       53.40339737        1.33841474
       28.67385       51.47729237        1.16901017
       28.77355       53.57888252        1.17119285
       28.87324       56.61902890        1.23615297
       28.97293       57.36469171        1.24719873
       29.07263       55.71197842        1.33970319
       29.17232       55.29782923        1.21802611
       29.27201       56.24730239        1.25118144
       29.37171       51.98577014        1.23720606
       29.47140       50.16848774        1.20129331
       29.57109       48.23209675        1.24894795
       29.67079       49.15261723        1.14786914
       29.77048       46.81963653        1.12280420
       29.87017       46.32049073        1.09486378
       29.96987       46.51484457        1.15040934
       30.06956       45.93081118        1.17935844
       30.16925       46.56751507        1.11813355
       30.26895       47.04835709        1.12820392
       30.36864       48.74306528        1.16717877
       30.46833       50.89653329        1.20485795
       30.56803       52.96863607        1.29846908
       30.66772       55.02336225        1.23161341
       30.76742       61.22947009        1.27347047
       30.86711       63.65197244        1.32438994
       30.96680       63.76623233        1.33323660
       31.06650       61.59477063        1.37385554
       31.16619       60.63255981        1.28158611
       31.26588       58.74682331        1.25384617
       31.36558       56.22157621        1.24256031
       31.46527       57.39981449        1.30643206
       31.56496       59.47190796        1.35125340
       31.66466       62.79252368        1.29861329
       31.76435       70.76416835        1.37749526
       31.86404       78.04330248        1.42787544
       31.96374       85.75399927        1.53180401
       32.06343       85.93043410        1.58678929
       32.16312       86.39850674        1.49533328
       32.26282       82.77689423        1.49929178
       32.36251       78.15578141        1.51497049
       32.46220       70.11598851        1.46033754
       32.56190       67.78690428        1.46128297
       32.66159       62.78158022        1.33527896
       32.76128       63.23785525        1.31008781
       32.86098       62.48279924        1.32176855
       32.96067       59.44758382        1.30528032
       33.06036       60.05879271        1.33594259
       33.16006       57.55755695        1.23154945
       33.25975       57.32368657        1.26896277
       33.35944       56.47765402        1.26635221
       33.45914       54.84651235        1.29532402
       33.55883       57.35566833        1.32783808
       33.65852       58.76523696        1.25336483
       33.75822       62.67574686        1.29227906
       33.85791       73.06364001        1.40135840
       33.95760       82.66554554        1.53498154
       34.05730       90.43289497        1.59009424
       34.15699      104.29258024        1.68095436
       34.25668      121.40360772        1.80787088
       34.35638      147.35394223        2.04409353
       34.45607      185.97094038        2.41994733
       34.55577      227.30216809        2.55041281
       34.65546      290.03735196        2.76455901
       34.75515      370.02187819        3.18482611
       34.85485      432.57322442        3.41939051
       34.95454      453.67832301        3.61224405
       35.05423      434.40065473        3.65441456
       35.15393      384.70056765        3.22780050
       35.25362      314.96207382        2.96448947
       35.35331      239.37234952        2.64961566
       35.45301      185.59756972        2.43360152
       35.55270      140.31380293        2.05921730
       35.65239      106.42277651        1.73115998
       35.75209       85.53233670        1.54000217
       35.85178       79.47592158        1.48235868
       35.95147       74.73693377        1.47117159
       36.05117       70.39151021        1.39821665
       36.15086       66.16421762        1.30328091
       36.25055       63.19852956        1.33064432
       36.35025       59.55342465        1.31684571
       36.44994       57.21497255        1.31643667
       36.54963       57.53922390        1.26731989
       36.64933       56.27731012        1.23459111
       36.74902       55.34359527        1.23706067
       36.84871       52.10980202        1.19158035
       36.94841       52.79110547        1.29705068
       37.04810       50.25323680        1.11574345
       37.14779       49.57547491        1.13089138
       37.24749       48.56144921        1.15035984
       37.34718       50.11859249        1.19853507
       37.44687       49.33959464        1.27738409
       37.54657       48.54498093        1.15670693
       37.64626       47.94955850        1.14515944
       37.74595       47.75674467        1.12497800
       37.84565       48.95420025        1.20520992
       37.94534       44.36895811        1.16870105
       38.04503       48.75915227        1.10750003
       38.14473       47.01908758        1.09814949
       38.24442       46.73344504        1.11480666
       38.34412       49.04575681        1.19409795
       38.44381       47.86598273        1.27549179
       38.54350       47.78604410        1.13603522
       38.64320       49.24791276        1.14984460
       38.74289       48.53751140        1.15642206
       38.84258       52.80006221        1.20922971
       38.94228       57.15662433        1.31981177
       39.04197       58.31907076        1.20216736
       39.14166       65.89396524        1.32963017
       39.24136       68.01096576        1.34725488
       39.34105       70.34228197        1.41802846
       39.44074       73.93722938        1.58596076
       39.54044       71.44197530        1.39380448
       39.64013       71.51405748        1.39026000
       39.73982       67.28682162        1.35382166
       39.83952       63.60279796        1.30719100
       39.93921       60.44031522        1.35100453
       40.03890       58.61341875        1.21775519
       40.13860       58.65321106        1.21659886
       40.23829       56.79843526        1.23948269
       40.33798       57.37245192        1.28458899
       40.43768       57.29612077        1.34313194
       40.53737       53.12884115        1.20023373
       40.63706       56.94156385        1.26881301
       40.73676       60.14113752        1.30204873
       40.83645       61.00791864        1.32238511
       40.93614       60.96374658        1.34404768
       41.03584       67.48220459        1.33103063
       41.13553       75.82945123        1.41284118
       41.23522       90.88650131        1.58487314
       41.33492      114.80602640        1.86563351
       41.43461      132.83341530        2.07156305
       41.53430      165.70860101        2.16828086
       41.63400      188.64034622        2.36468114
       41.73369      208.73398368        2.43395162
       41.83338      209.39642460        2.50261798
       41.93308      213.33230399        2.50379213
       42.03277      219.29633827        2.32050908
       42.13247      238.97189341        2.54662008
       42.23216      293.58107079        2.83023975
       42.33185      351.88990738        3.32773837
       42.43155      422.52651753        3.59520243
       42.53124      492.69605708        3.76130393
       42.63093      532.82912321        3.91900040
       42.73063      557.51812380        4.02798895
       42.83032      544.63613822        4.05142315
       42.93001      499.01947284        3.73043578
       43.02971      430.04081255        3.27010263
       43.12940      334.47039240        2.93946867
       43.22909      253.21601734        2.68612576
       43.32879      191.57419334        2.45977101
       43.42848      141.80123872        2.06836942
       43.52817      107.38714093        1.72136186
       43.62787       85.37283144        1.52918945
       43.72756       70.72791557        1.42438393
       43.82725       65.33767996        1.42940905
       43.92695       62.34423154        1.26610602
       44.02664       57.68191724        1.21185842
       44.12633       55.54496230        1.23344792
       44.22603       53.83398168        1.26384947
       44.32572       56.57803502        1.36570810
       44.42541       54.83575144        1.28360062
       44.52511       55.31072122        1.25449406
       44.62480       54.60698325        1.26407687
       44.72449       59.45609735        1.27843804
       44.82419       60.85196948        1.45133380
       44.92388       66.72009939        1.26765355
       45.02357       76.25586553        1.36664635
       45.12327       88.99621032        1.52113233
       45.22296      105.66494991        1.70164622
       45.32265      124.55588045        2.04429320
       45.42235      145.99058872        2.01579214
       45.52204      176.57222064        2.19574430
       45.62174      206.97559194        2.42170981
       45.72143      232.69905093        2.56887126
       45.82112      243.84555523        2.87917174
       45.92082      246.05449472        2.45539976
       46.02051      246.29128999        2.50915612
       46.12020      235.52525505        2.46115040
       46.21990      217.01362954        2.48158091
       46.31959      192.39742080        2.52189312
       46.41928      172.37865702        2.20412488
       46.51898      147.79732177        2.05148518
       46.61867      117.17131475        1.81623874
       46.71836       93.58996592        1.66409375
       46.81806       79.21229502        1.58698908
       46.91775       67.35821930        1.27525672
       47.01744       59.65120433        1.22843376
       47.11714       64.47517720        1.30652824
       47.21683       66.72522667        1.36831325
       47.31652       74.62420503        1.57895040
       47.41622       85.45136980        1.59263208
       47.51591       97.09321780        1.70107598
       47.61560      116.59307505        1.84918972
       47.71530      134.88023782        2.01102486
       47.81499      150.11903600        2.17548446
       47.91468      162.42879329        1.97990819
       48.01438      176.86606415        2.06757865
       48.11407      184.86868208        2.19333966
       48.21376      186.13089888        2.29791906
       48.31346      172.88217417        2.29268592
       48.41315      161.10250257        2.06251737
       48.51284      141.13163602        1.99387620
       48.61254      121.87138418        1.84466661
       48.71223       98.51137190        1.68771357
       48.81192       87.35176941        1.58524201
       48.91162       71.67319918        1.28678245
       49.01131       60.04300974        1.21870446
       49.11100       58.46865495        1.24595429
       49.21070       52.92053392        1.24427975
       49.31039       49.82403727        1.24243670
       49.41009       50.22270001        1.17842163
       49.50978       48.78649006        1.18542372
       49.60947       49.00950820        1.19683689
       49.70917       49.06704334        1.24194642
       49.80886       50.94399395        1.23170432
       49.90855       49.44928600        1.10536298
       50.00825       49.00386041        1.12359743
       50.10794       51.04323494        1.17292135
       50.20763       49.80516392        1.21042580
       50.30733       51.68069113        1.29164405
       50.40702       52.14267684        1.21668192
       50.50671       52.96096173        1.22982788
       50.60641       56.59860810        1.27332588
       50.70610       57.81490067        1.32426513
       50.80579       55.44415253        1.27960964
       50.90549       56.75513989        1.16728999
       51.00518       54.17543748        1.15045976
       51.10487       53.91073943        1.18630083
       51.20457       55.32280297        1.27941988
       51.30426       57.27041326        1.29506297
       51.40395       58.68296823        1.25682047
       51.50365       58.88552650        1.27337584
       51.60334       61.49026698        1.32705408
       51.70303       59.83925282        1.39012835
       51.80273       59.96443595        1.27646199
       51.90242       59.30573110        1.18601500
       52.00211       61.43618343        1.21292907
       52.10181       63.95726572        1.27684797
       52.20150       61.94574644        1.38377097
       52.30119       61.43643485        1.32747027
       52.40089       59.67234609        1.28770733
       52.50058       61.86222894        1.33599503
       52.60027       61.10563486        1.34590006
       52.69997       59.78722835        1.45891942
       52.79966       60.57446290        1.23464191
       52.89935       65.22632307        1.23638060
       52.99905       70.85327557        1.30986140
       53.09874       81.05150568        1.44649326
       53.19844       98.29275559        1.82495979
       53.29813      114.00080212        1.74724464
       53.39782      125.70176658        1.89839186
       53.49752      136.12784089        1.98488329
       53.59721      144.05119141        2.04053035
       53.69690      153.49055762        2.31171334
       53.79660      157.40097428        1.96115946
       53.89629      151.86321138        1.90520927
       53.99598      145.06458455        1.90725328
       54.09568      134.17829711        1.91500107
       54.19537      122.76577651        1.99720965
       54.29506      109.88772949        1.73537342
       54.39476       99.83874468        1.66656542
       54.49445       96.98091874        1.64369649
       54.59414       92.68075183        1.63116046
       54.69384       87.49705583        1.69050451
       54.79353       83.51242175        1.41610392
       54.89322       83.81110513        1.41356883
       54.99292       75.43550384        1.37997543
       55.09261       75.72175156        1.43787009
       55.19230       71.16123586        1.49669474
       55.29200       66.76020364        1.34910471
       55.39169       62.86429920        1.35066236
       55.49138       58.50585650        1.29799159
       55.59108       56.74043834        1.31918438
       55.69077       55.44077826        1.33818632
       55.79046       55.31734523        1.16864274
       55.89016       54.68081755        1.15909771
       55.98985       55.95585720        1.18010268
       56.08954       58.27785892        1.24412435
       56.18924       65.13280624        1.41975647
       56.28893       72.73839468        1.37347022
       56.38862       80.87038537        1.49830896
       56.48832       91.06357633        1.61766794
       56.58801      102.60747176        1.76729503
       56.68770      107.50182485        1.86718087
       56.78740      115.82761967        1.65913258
       56.88709      114.35038020        1.66489104
       56.98679      107.63531515        1.61642801
       57.08648       96.53237492        1.62226823
       57.18617       86.34771255        1.58828276
       57.28587       74.97767879        1.38241920
       57.38556       68.63746326        1.40781868
       57.48525       62.59684380        1.37006566
       57.58495       55.06180516        1.31411136
       57.68464       54.29207540        1.31626380
       57.78433       52.59158950        1.13323268
       57.88403       51.37880278        1.13310012
       57.98372       50.58831833        1.14222180
       58.08341       51.06252671        1.24080247
       58.18311       52.76902718        1.29037193
       58.28280       52.51085967        1.21239934
       58.38249       52.40748308        1.26559102
       58.48219       53.05683602        1.30093450
       58.58188       52.96614711        1.31403338
       58.68157       52.64699577        1.28374127
       58.78127       53.91491806        1.13638368
       58.88096       52.53791023        1.10517286
       58.98065       53.13023931        1.15372736
       59.08035       55.99257292        1.26393852
       59.18004       58.29302216        1.30832225
       59.27973       59.03501582        1.24223985
       59.37943       61.42862606        1.30903973
       59.47912       65.30488492        1.40519939
       59.57881       72.59202193        1.55238291
       59.67851       75.35506836        1.47467271
       59.77820       84.65544309        1.43724744
       59.87789       92.11932614        1.49421035
       59.97759      100.35006701        1.63173392
       60.07728      105.65126978        1.81333750
       60.17697      106.90751363        1.73770252
       60.27667      108.41240925        1.70138145
       60.37636      104.50035516        1.70257072
       60.47605      103.15094201        1.76462046
       60.57575       98.06045896        1.88533856
       60.67544       93.51506158        1.58159670
       60.77514       84.25991340        1.42688531
       60.87483       77.56116516        1.34221302
       60.97452       73.78614704        1.37906066
       61.07422       71.43608077        1.52425158
       61.17391       67.51385666        1.28343208
       61.27360       65.02508035        1.30416743
       61.37330       66.71716466        1.37010138
       61.47299       64.60254046        1.40736045
       61.57268       67.86692742        1.64054355
       61.67238       70.84557533        1.36624907
       61.77207       71.38366593        1.33569501
       61.87176       71.66285318        1.32340654
       61.97146       69.58504488        1.35381488
       62.07115       67.50006875        1.51003025
       62.17084       68.08936688        1.32876363
       62.27054       65.87809946        1.36269374
       62.37023       62.89926426        1.38442860
       62.46992       66.25277552        1.46972659
       62.56962       66.57560811        1.65475818
       62.66931       66.91864308        1.33650523
       62.76900       73.48452286        1.36537163
       62.86870       78.26493733        1.37851379
       62.96839       87.81812530        1.50722955
       63.06808       94.73620238        1.74246261
       63.16778      103.81037720        1.61954630
       63.26747      113.98073426        1.75664193
       63.36716      118.42062009        1.85834006
       63.46686      124.20584662        1.96056120
       63.56655      130.94224999        2.13897312
       63.66624      142.85682685        1.89958281
       63.76594      154.66564683        1.92052451
       63.86563      164.02610247        1.97208314
       63.96532      175.06967938        2.13256597
       64.06502      174.18243959        2.27868491
       64.16471      174.43321921        2.10930981
       64.26440      160.80152040        2.10749611
       64.36410      148.62109421        2.06648092
       64.46379      130.29494663        2.04531243
       64.56349      116.14178216        1.96473218
       64.66318      100.67021536        1.60042760
       64.76287       82.26418570        1.42820754
       64.86257       72.56039084        1.33898484
       64.96226       63.02048177        1.30673957
       65.06195       55.37066645        1.32414843
       65.16165       54.90816765        1.18948768
       65.26134       51.26227274        1.17607929
       65.36103       52.36066556        1.24034059
       65.46073       53.05983017        1.28964936
       65.56042       55.69438244        1.38012246
       65.66011       55.11666531        1.19712647
       65.75981       61.15947724        1.24869363
       65.85950       58.79089383        1.21635547
       65.95919       60.68747920        1.29371819
       66.05889       63.49485214        1.36887276
       66.15858       71.80145841        1.38457692
       66.25827       75.43027816        1.46773021
       66.35797       90.31252427        1.67371887
       66.45766      100.81733512        1.87937938
       66.55735      112.54668219        1.98564730
       66.65705      128.96155914        1.88613067
       66.75674      141.54301161        1.92597377
       66.85643      151.07109727        1.96740015
       66.95613      164.12553796        2.13284118
       67.05582      171.85934089        2.19934068
       67.15551      167.93926836        2.06863460
       67.25521      162.66221449        2.13668697
       67.35490      149.73226480        2.15751396
       67.45459      135.29799806        2.16232975
       67.55429      118.98806984        1.94223893
       67.65398      103.84714569        1.62597450
       67.75367       86.11064918        1.46789313
       67.85337       79.89215599        1.43114793
       67.95306       75.69013477        1.48939467
       68.05275       77.43259054        1.42652269
       68.15245       80.72511124        1.44409635
       68.25214       90.01004885        1.61888521
       68.35184       99.90488774        1.77792931
       68.45153      102.28607161        1.98041962
       68.55122      107.13683610        1.74617702
       68.65092      117.25970941        1.70314842
       68.75061      128.48569934        1.80176068
       68.85030      128.96161254        1.83981257
       68.95000      127.42607382        2.07335688
       69.04969      121.03108921        1.70618480
       69.14938      114.71979434        1.70790644
       69.24908       99.58006135        1.69866187
       69.34877       87.16709837        1.64323876
       69.44846       82.71002332        1.85657532
       69.54816       76.61090630        1.39298170
       69.64785       64.78115780        1.26248850
       69.74754       58.98476642        1.21662269
       69.84724       53.75637521        1.19155676
       69.94693       53.49062149        1.34142377
       70.04662       50.65687244        1.07339369
       70.14632       45.48396067        1.05746716
       70.24601       46.35844958        1.14313272
       70.34570       48.26522875        1.23436333
       70.44540       45.72419478        1.41544322
       70.54509       49.40602651        1.15180730
       70.64478       49.11512782        1.14676642
       70.74448       51.04742388        1.18771824
       70.84417       50.65994421        1.22777251
       70.94386       50.98680850        1.35210644
       71.04356       49.89219419        1.10674643
       71.14325       53.62669515        1.19252882
       71.24294       53.18887870        1.24958090
       71.34264       54.32391466        1.33910162
       71.44233       53.12286036        1.47761938
       71.54202       53.27397701        1.20468321
       71.64172       54.45995438        1.18487334
       71.74141       55.26001713        1.17191942
       71.84110       53.14251703        1.18956274
       71.94080       52.17117156        1.28430714
       72.04049       50.38639881        1.06821651
       72.14019       50.92983119        1.11898668
       72.23988       53.72068797        1.20257747
       72.33957       54.70821127        1.35562396
       72.43927       50.56294839        1.43441294
       72.53896       52.73425873        1.17461342
       72.63865       53.31268079        1.15443433
       72.73835       55.47509155        1.15180209
       72.83804       57.97654814        1.24348913
       72.93773       57.40148735        1.31426490
       73.03743       62.56240448        1.19119149
       73.13712       65.53449327        1.28582773
       73.23681       64.44116247        1.33951067
       73.33651       64.58244175        1.47555599
       73.43620       61.64398248        1.56129265
       73.53589       66.82776876        1.31160450
       73.63559       67.20316751        1.29464641
       73.73528       65.44818384        1.27174656
       73.83497       66.45428509        1.35863235
       73.93467       63.44673649        1.39774762
       74.03436       64.28094883        1.24514453
       74.13405       62.84386909        1.28342556
       74.23375       63.13565024        1.33998568
       74.33344       61.31135806        1.45357894
       74.43313       63.11862481        1.53048885
       74.53283       63.34449281        1.30269792
       74.63252       64.65597147        1.30663473
       74.73221       70.37914260        1.35683859
       74.83191       70.49150902        1.44046723
       74.93160       77.55844137        1.52832783
       75.03129       79.28606142        1.37382383
       75.13099       82.67039378        1.45317554
       75.23068       92.23859597        1.60153669
       75.33037       96.45673895        1.80038375
       75.43007      102.50600646        1.88304032
       75.52976      111.29685464        1.70465263
       75.62945      123.23011973        1.79271928
       75.72915      131.88965055        1.84768325
       75.82884      137.98504293        2.03507927
       75.92854      141.53560037        1.93498765
       76.02823      146.30832477        1.84531110
       76.12792      149.23397539        1.94804405
       76.22762      150.42903795        2.06356260
       76.32731      150.21799096        2.32889591
       76.42700      151.48808363        2.20743332
       76.52670      146.94634009        2.00541131
       76.62639      136.57144816        1.90826212
       76.72608      124.31716670        1.78975689
       76.82578      119.49514325        2.02162974
       76.92547      121.28984697        1.63153154
       77.02516      120.02902894        1.68213018
       77.12486      122.10139977        1.78235275
       77.22455      125.55231540        1.92462913
       77.32424      128.40983455        2.39139441
       77.42394      133.38501129        1.94639399
       77.52363      135.31901592        1.89453376
       77.62332      139.39617666        1.91428211
       77.72302      147.28487770        1.97263277
       77.82271      150.89651447        2.34184202
       77.92240      151.16142993        1.79481500
       78.02210      153.38251971        1.95100302
       78.12179      147.19554074        2.04089892
       78.22148      145.63808717        2.14667075
       78.32118      135.52760623        2.40210786
       78.42087      127.19236197        1.83098816
       78.52056      120.61647674        1.84095892
       78.62026      113.26263239        1.76959965
       78.71995      100.90005080        1.67520537
       78.81964       96.60029282        1.83069482
       78.91934       89.44355788        1.36470824
       79.01903       76.77334625        1.38563856
       79.11872       75.80556034        1.43293872
       79.21842       68.80086934        1.45595755
       79.31811       65.88711893        1.60476855
       79.41780       63.86105802        1.28153757
       79.51750       63.84086472        1.30197580
       79.61719       64.48669710        1.31242532
       79.71689       60.54264142        1.32009853
       79.81658       63.26832154        1.43065522
       79.91627       64.59364678        1.22538917
       80.01597       62.75519788        1.24138798
       80.11566       64.09471178        1.31153944
       80.21535       62.97495529        1.38961834
       80.31505       63.81378444        1.66293657
       80.41474       65.27391516        1.29242890
       80.51443       67.39337224        1.30758812
       80.61413       71.11796959        1.38795468
       80.71382       75.04485257        1.47507915
       80.81351       83.77737512        1.75179615
       80.91321       86.95078344        1.31612973
       81.01290      103.74742055        1.55268413
       81.11259      119.34667199        1.79809425
       81.21229      135.11408847        2.07004701
       81.31198      151.43862054        2.44550872
       81.41167      166.56659750        2.00857863
       81.51137      192.64075058        2.22341498
       81.61106      207.98209382        2.41289191
       81.71075      227.48711572        2.61289377
       81.81045      234.15879254        2.80853887
       81.91014      261.40759315        2.28325906
       82.00983      273.76937153        2.49792289
       82.10953      284.40753879        2.84870294
       82.20922      290.65361567        3.20306637
       82.30891      299.92318510        3.41261544
       82.40861      306.86475205        2.80765899
       82.50830      299.08004596        2.76390789
       82.60799      303.72521564        3.00083357
       82.70769      295.45205702        3.22001827
       82.80738      295.69318721        3.07791243
       82.90707      289.05863158        2.47074434
       83.00677      278.19647050        2.58204717
       83.10646      262.05536136        2.94756745
       83.20615      253.50799993        3.22660555
       83.30585      235.89853051        2.94744413
       83.40554      220.81902340        2.37032085
       83.50524      197.24510169        2.18485794
       83.60493      181.72046871        2.30978649
       83.70462      165.73128179        2.48659904
       83.80432      154.45327400        2.09752641
       83.90401      125.03963554        1.58200248
       84.00370      105.45110376        1.51466023
       84.10340       90.20939174        1.67349254
       84.20309       81.83159698        1.93466449
       84.30278       78.01995559        1.53624623
       84.40248       73.24912900        1.31358809
       84.50217       67.58792718        1.23767185
       84.60186       64.23638391        1.36420909
       84.70156       67.27869985        1.82717015
       84.80125       63.14638665        1.23224350
       84.90094       64.99797515        1.12313139
       85.00064       62.42679986        1.13393984
       85.10033       62.23555780        1.33992356
       85.20002       64.79585930        2.34510965
       85.29972       66.60894951        1.25432789
       85.39941       66.05571468        1.27349859
       85.49910       66.58284917        1.24339892
       85.59880       68.91014142        1.42249902
       85.69849       64.30430782        2.46665529
       85.79818       67.26459294        1.18953101
       85.89788       63.34522280        1.12661884
       85.99757       65.38912427        1.17621554
       86.09726       63.03401200        1.32581660
       86.19696       63.75623616        2.56104371
       86.29665       62.31815573        1.19815105
       86.39634       63.33896471        1.22893200
       86.49604       58.33426871        1.16134104
       86.59573       55.94597827        1.21169637
       86.69542       60.47600483        2.63440184
       86.79512       55.53782522        1.04778422
       86.89481       54.91019888        1.02714291
       86.99451       54.37376329        1.05944449
       87.09420       52.20625760        1.15769037
       87.19389       55.14319981        2.81868575
       87.29359       51.43152448        1.10307862
       87.39328       49.95888032        1.10180294
       87.49297       51.10751775        1.08186921
       87.59267       49.39081450        1.08439228
       87.69236       55.71822970        3.44717046
       87.79205       49.56092132        1.01254611
       87.89175       50.70720400        1.01598401
       87.99144       50.74130247        1.05902661
       88.09113       51.52541106        1.13431317
       88.19083       42.11381954        5.42485956
       88.29052       49.03820226        1.11347278
       88.39021       50.47199810        1.13722054
       88.48991       49.18028094        1.07730444
       88.58960       50.44471527        1.05664951
       88.68929       45.14322475        7.74200295
       88.78899       47.65399123        0.99120398
       88.88868       49.11183522        0.98432492
       88.98837       49.77188750        1.03066968
       89.08807       48.56096541        1.04272278
       89.18776       36.86209885        7.38885425
       89.28745       50.75953805        1.08321802
       89.38715       51.80687939        1.10561731
       89.48684       54.71909211        1.11206851
       89.58653       55.77414047        1.09996792
       89.68623       56.10507712        8.94374010
       89.78592       57.93439488        1.08939772
       89.88561       63.51246296        1.11846191
       89.98531       64.97250893        1.16002467
       90.08500       69.80138011        1.24721367
       90.18469       92.58823874       11.98961976
       90.28439       76.48487902        1.33366580
       90.38408       81.10141129        1.39657294
       90.48377       86.25625017        1.41344883
       90.58347       92.64220265        1.44209737
       90.68316       94.61216136       11.35277851
       90.78286       93.51324184        1.38692109
       90.88255       95.13872555        1.36127125
       90.98224      100.95507522        1.45111792
       91.08194      100.49303304        1.49526814
       91.18163       94.81874009       11.58773493
       91.28132      100.38945180        1.53872415
       91.38102       97.47929975        1.55633804
       91.48071       96.25387104        1.50851203
       91.58040       89.71507599        1.40817614
       91.68010      102.97719391       11.41891488
       91.77979       87.06243878        1.33154436
       91.87948       80.99645093        1.26422213
       91.97918       79.00450332        1.29644639
       92.07887       73.69770257        1.30410060
       92.17856       76.81790008       10.12442301
       92.27826       73.64863400        1.34642105
       92.37795       74.50412955        1.38638550
       92.47764       76.02238457        1.32950948
       92.57734       76.52597322        1.29404852
       92.67703       67.62929821        7.89417235
       92.77672       78.00406747        1.25925237
       92.87642       82.44136996        1.27004931
       92.97611       86.26037344        1.35673485
       93.07580       91.29767567        1.59331699
       93.17550       85.07391516        2.89150973
       93.27519       90.14906599        1.45926946
       93.37488       94.31052642        1.45109606
       93.47458       99.57479779        1.50771681
       93.57427       97.77357272        1.72716169
       93.67396       99.90116846        2.35954689
       93.77366      101.68160439        1.47475729
       93.87335       98.19521977        1.38415193
       93.97304       95.91644908        1.42551553
       94.07274       92.33103967        1.81559522
       94.17243       93.21289313        2.08156429
       94.27212       91.85483471        1.53897376
       94.37182       88.07933685        1.46853939
       94.47151       86.61691429        1.39459086
       94.57121       83.71307500        1.80923226
       94.67090       80.78625076        1.79772229
       94.77059       82.03581291        1.40832721
       94.87029       75.05287229        1.22463130
       94.96998       70.52365554        1.20195741
       95.06967       71.33940775        1.39363340
       95.16937       65.32634537        1.82519591
       95.26906       65.45093143        1.41136236
       95.36875       62.86370891        1.25498799
       95.46845       64.08041315        1.21776813
       95.56814       59.22253072        1.34688707
       95.66783       60.01476388        1.52329644
       95.76753       55.84061862        1.21405623
       95.86722       56.68365590        1.04049551
       95.96691       54.01492384        1.05344499
       96.06661       55.06731518        1.36261821
       96.16630       55.00329106        1.45224515
       96.26599       53.22503561        1.28287468
       96.36569       50.43960519        1.12046219
       96.46538       50.13347231        1.07804696
       96.56507       49.43202182        1.32121745
       96.66477       49.71030511        1.29106334
       96.76446       46.86443477        1.12009447
       96.86415       47.75427255        0.97941769
       96.96385       48.32595043        1.01764282
       97.06354       46.19382541        1.34526248
       97.16323       50.63388072        1.34689349
       97.26293       49.53439530        1.25154341
       97.36262       49.80280922        1.16211584
       97.46231       49.68499019        1.06785634
       97.56201       49.93857375        1.36204714
       97.66170       50.84001202        1.23440436
       97.76139       51.70715223        1.13099953
       97.86109       52.36410042        1.02920531
       97.96078       52.80525600        1.05612472
       98.06047       55.85905215        1.50892065
       98.16017       57.67801003        1.36312654
       98.25986       56.71479384        1.29106691
       98.35956       56.75302177        1.21929546
       98.45925       62.78354392        1.19727919
       98.55894       61.85741423        1.55018616
       98.65864       63.51538379        1.34786458
       98.75833       68.80588367        1.31104252
       98.85802       68.87651773        1.22477254
       98.95772       72.42259541        1.24767733
       99.05741       72.64084613        1.73470269
       99.15710       74.08587962        1.50668072
       99.25680       76.71856609        1.48553120
       99.35649       78.58984559        1.43209872
       99.45618       82.07754331        1.36404418
       99.55588       82.55949195        1.82798680
       99.65557       83.96659462        1.52093896
       99.75526       89.09243708        1.46865749
       99.85496       87.44094975        1.38473863
       99.95465       85.15910801        1.33963203
      100.05434       88.72170038        1.94816514
      100.15404       88.16270732        1.63571710
      100.25373       87.65526625        1.61144136
      100.35342       89.61253156        1.62307635
      100.45312       82.90461863        1.42421406
      100.55281       84.55103223        1.88916762
      100.65250       81.79414046        1.51358505
      100.75220       79.78212787        1.38455871
      100.85189       77.63313331        1.30491181
      100.95158       77.66382584        1.27029962
      101.05128       80.37128239        1.84253939
      101.15097       77.23008467        1.49259821
      101.25066       74.92444201        1.45240687
      101.35036       75.21040626        1.46780548
      101.45005       76.95214864        1.39624737
      101.54974       73.41199990        1.69838837
      101.64944       75.78973354        1.40805227
      101.74913       75.39820001        1.32323988
      101.84882       75.62655866        1.29002764
      101.94852       77.44134805        1.37516643
      102.04821       78.94066542        1.67239053
      102.14791       80.10870999        1.51837966
      102.24760       81.22826846        1.51610060
      102.34729       80.02706525        1.49864423
      102.44699       83.17571621        1.55457704
      102.54668       82.58798124        1.62544173
      102.64637       85.66908982        1.47871020
      102.74607       86.06331309        1.41153234
      102.84576       89.07268971        1.40887994
      102.94545       87.19633466        1.58754830
      103.04515       88.03443311        1.68872711
      103.14484       84.13448209        1.54223180
      103.24453       84.73973028        1.52392263
      103.34423       88.58200373        1.54568436
      103.44392       83.69250989        1.62718606
      103.54361       82.52871667        1.56963236
      103.64331       86.71930043        1.46482445
      103.74300       86.92331136        1.39889799
      103.84269       87.68944139        1.38076422
      103.94239       83.92112251        1.62303271
      104.04208       82.47197947        1.55648710
      104.14177       82.57494847        1.51527345
      104.24147       83.07956531        1.51915020
      104.34116       81.80792334        1.51677043
      104.44085       80.96050545        1.71368650
      104.54055       79.61357466        1.53852227
      104.64024       78.91467623        1.43980526
      104.73993       76.10785438        1.34916568
      104.83963       74.22130892        1.28353926
      104.93932       73.86802420        1.55230138
      105.03901       71.27588941        1.43662930
      105.13871       73.05788208        1.40057281
      105.23840       69.97112571        1.36973023
      105.33809       70.04203801        1.37851735
      105.43779       65.24091104        1.54775119
      105.53748       67.01039887        1.40679286
      105.63717       65.98033227        1.27949518
      105.73687       63.00909943        1.18981811
      105.83656       61.03173618        1.14096936
      105.93626       58.00032737        1.40937667
      106.03595       59.00455643        1.28841245
      106.13564       58.93872122        1.24457435
      106.23534       58.29718142        1.25299633
      106.33503       54.78433425        1.22677796
      106.43472       52.19176016        1.41546956
      106.53442       54.56544182        1.25897306
      106.63411       50.86927105        1.10409533
      106.73380       55.20646162        1.09641725
      106.83350       53.64236710        1.06457981
      106.93319       54.90991549        1.39630552
      107.03288       55.77043370        1.24722201
      107.13258       56.03560843        1.21348784
      107.23227       57.19667660        1.24383899
      107.33196       58.71385450        1.25683584
      107.43166       54.21280582        1.45087451
      107.53135       58.37300215        1.29914599
      107.63104       59.91748271        1.19856504
      107.73074       61.00356225        1.16033562
      107.83043       57.58743341        1.11299448
      107.93012       63.10265263        1.54153559
      108.02982       63.44776091        1.35294422
      108.12951       61.46370668        1.26623010
      108.22920       65.41906776        1.28556977
      108.32890       66.90428652        1.28775339
      108.42859       67.90613176        1.64660819
      108.52828       68.54524190        1.40332157
      108.62798       67.27811649        1.26059793
      108.72767       67.17039946        1.20899120
      108.82736       69.32276256        1.25536565
      108.92706       68.49728971        1.58037124
      109.02675       66.58425547        1.36302508
      109.12644       68.76434100        1.35203795
      109.22614       67.57881697        1.34133132
      109.32583       67.73092074        1.46328583
      109.42552       68.47106618        1.55194360
      109.52522       67.50240259        1.39017147
      109.62491       64.35670111        1.29096723
      109.72461       63.95175494        1.23033146
      109.82430       60.74844617        1.12001213
      109.92399       58.92435339        1.43410245
      110.02369       61.47835130        1.28289739
      110.12338       60.75644910        1.26700098
      110.22307       60.08123498        1.25048201
      110.32277       59.94228893        1.27546144
      110.42246       57.93265972        1.52448977
      110.52215       56.65436574        1.27680640
      110.62185       57.93409947        1.21690569
      110.72154       54.52774666        1.10130067
      110.82123       54.51115043        1.13720801
      110.92093       55.81582859        1.34219594
      111.02062       55.28094939        1.23401439
      111.12031       56.47217677        1.25660448
      111.22001       57.43831716        1.24360944
      111.31970       54.66506487        1.31654611
      111.41939       60.03768090        1.42796705
      111.51909       58.18377772        1.27546082
      111.61878       57.91941625        1.19876247
      111.71847       62.83223819        1.16185049
      111.81817       64.66676534        1.27937399
      111.91786       64.38209966        1.34340229
      112.01755       66.75342548        1.33580595
      112.11725       70.34766588        1.38185727
      112.21694       73.19631319        1.40336817
      112.31663       74.73774781        1.56272497
      112.41633       74.85540366        1.53641774
      112.51602       78.05318651        1.44491760
      112.61571       81.66554058        1.41005361
      112.71541       83.50204263        1.34376227
      112.81510       84.89377871        1.51930213
      112.91479       92.37580688        1.61482465
      113.01449       86.69725812        1.53163946
      113.11418       89.38047896        1.55010851
      113.21387       91.75458632        1.56354599
      113.31357       87.28794366        1.69338082
      113.41326       91.90133768        1.65154733
      113.51296       91.29349621        1.54834950
      113.61265       89.97510520        1.48310659
      113.71234       92.54040330        1.43680485
      113.81204       90.91809235        1.63147192
      113.91173       89.58285462        1.56920201
      114.01142       86.66332987        1.52771739
      114.11112       87.62703933        1.53542541
      114.21081       88.95599130        1.55828710
      114.31050       86.82092391        1.74569258
      114.41020       86.06834921        1.60606757
      114.50989       84.40966431        1.48889728
      114.60958       84.53691173        1.44192109
      114.70928       83.76106245        1.38426804
      114.80897       81.41367800        1.54773169
      114.90866       81.99603918        1.46506585
      115.00836       84.15527480        1.47740511
      115.10805       82.86841030        1.47398446
      115.20774       84.16576479        1.50802624
      115.30744       82.84000746        1.71771894
      115.40713       83.14689460        1.55873595
      115.50682       83.31517738        1.47306416
      115.60652       86.26617811        1.44477098
      115.70621       85.62349014        1.38331573
      115.80590       87.06956511        1.62740263
      115.90560       93.09411691        1.52552242
      116.00529       94.40291477        1.55342029
      116.10498       93.56179817        1.56259697
      116.20468       97.24377939        1.62983288
      116.30437      100.13816680        1.97176266
      116.40406      100.69889878        1.72215753
      116.50376      103.63483982        1.65115357
      116.60345      106.38675578        1.60604243
      116.70314      111.76189906        1.59647762
      116.80284      115.85158048        1.93159426
      116.90253      119.15696105        1.76238347
      117.00222      122.21370778        1.77091765
      117.10192      126.79843934        1.85245553
      117.20161      133.68447737        1.92571024
      117.30131      134.89397063        2.31484460
      117.40100      140.97417486        1.98989106
      117.50069      146.11338648        1.92440488
      117.60039      150.30939067        1.86819300
      117.70008      152.92186176        1.82569001
      117.79977      157.87932511        2.27355988
      117.89947      159.82716362        1.98876334
      117.99916      169.27708071        2.07180277
      118.09885      161.78332518        2.06286130
      118.19855      167.62945678        2.19975513
      118.29824      169.03101851        2.42168812
      118.39793      172.38081985        2.22064393
      118.49763      177.67822640        2.12782137
      118.59732      176.79978921        2.04922018
      118.69701      175.57419027        2.12725466
      118.79671      178.84458512        2.31850023
      118.89640      175.49615428        2.14108230
      118.99609      175.57392155        2.13927104
      119.09579      176.71385920        2.17130675
      119.19548      172.57286848        2.34420221
      119.29517      174.83620486        2.45156102
      119.39487      172.87177709        2.24078476
      119.49456      169.39276344        2.09002975
      119.59425      164.30946884        1.99870752
      119.69395      156.68448427        2.05860220
      119.79364      158.40395694        2.09198407
      119.89333      155.08476384        2.00310589
      119.99303      149.32410419        1.91869161
      120.09272      147.11159057        1.94767726
      120.19241      135.72670513        2.10197384
      120.29211      137.55882910        2.09467083
      120.39180      136.18855509        1.98833328
      120.49149      130.09353408        1.80701013
      120.59119      128.09589290        1.74026194
      120.69088      121.86418741        1.82686514
      120.79057      125.87166919        1.81705729
      120.89027      120.06555084        1.74194313
      120.98996      119.66222699        1.72562575
      121.08966      122.18381111        1.75692115
      121.18935      119.30692849        1.98983616
      121.28904      119.32663723        1.93955497
      121.38874      113.14121060        1.78557164
      121.48843      115.23875876        1.70217396
      121.58812      114.36540765        1.61723193
      121.68782      114.60168617        1.79348318
      121.78751      114.59913229        1.70899732
      121.88720      115.72967967        1.69551575
      121.98690      112.94039425        1.68734375
      122.08659      113.33924559        1.72419494
      122.18628      112.50282240        1.99271554
      122.28598      109.08619017        1.84503362
      122.38567      109.67215821        1.77182788
      122.48536      110.97498195        1.68603362
      122.58506      109.21049399        1.58400786
      122.68475      106.67044210        1.77381216
      122.78444      108.13361236        1.68174195
      122.88414      109.19187868        1.67566799
      122.98383      107.91597377        1.69990623
      123.08352      104.23942835        1.65619932
      123.18322      101.83300650        1.90906490
      123.28291      106.50754646        1.77471533
      123.38260      103.67760832        1.69016647
      123.48230      100.61433310        1.60458566
      123.58199       99.83428741        1.49389729
      123.68168       95.94634231        1.67094057
      123.78138       94.50358536        1.49607802
      123.88107       92.89958683        1.44894971
      123.98076       91.93411948        1.46801501
      124.08046       85.90678025        1.40382819
      124.18015       89.08425343        1.61823807
      124.27984       85.11212190        1.41694649
      124.37954       83.68334582        1.32573927
      124.47923       84.07864581        1.29732836
      124.57893       79.88880966        1.34709412
