        5.04651       56.49818123        2.56372938
        5.14621       56.25762835        2.46551317
        5.24590       54.12810497        2.38354012
        5.34559       56.08026571        2.22532400
        5.44529       56.78768711        2.43623257
        5.54498       55.17624377        2.01990502
        5.64467       51.55867862        1.93525349
        5.74437       54.99551164        1.80443253
        5.84406       54.66102126        1.82049780
        5.94375       53.21513421        1.79375969
        6.04345       55.00900931        1.77221984
        6.14314       54.13066209        1.60960946
        6.24283       54.06747951        1.66176909
        6.34253       52.58410362        1.56300971
        6.44222       50.78829856        1.61734361
        6.54191       51.87826791        1.54859779
        6.64161       54.40788160        1.50252137
        6.74130       53.19657191        1.49163895
        6.84099       52.34212705        1.46885427
        6.94069       53.14305811        1.50237861
        7.04038       53.47768398        1.39117966
        7.14007       51.48757692        1.36212309
        7.23977       52.61198180        1.35289600
        7.33946       50.77900246        1.34937798
        7.43915       51.67347528        1.34349095
        7.53885       49.59457841        1.29180925
        7.63854       52.53482203        1.27088629
        7.73823       51.95180615        1.31226695
        7.83793       53.05038548        1.28330210
        7.93762       51.90728547        1.32411460
        8.03732       53.22610226        1.20254750
        8.13701       52.00259891        1.18322924
        8.23670       52.25026939        1.20278976
        8.33640       50.27934931        1.18012875
        8.43609       52.65919059        1.26274275
        8.53578       51.72576384        1.16566193
        8.63548       51.63246583        1.15122071
        8.73517       53.17065893        1.14603901
        8.83486       50.89799262        1.12391969
        8.93456       53.07172994        1.14186172
        9.03425       52.50639463        1.10248328
        9.13394       52.53012958        1.10480947
        9.23364       53.13088746        1.12735629
        9.33333       51.61137170        1.13368030
        9.43302       49.71135002        1.11295648
        9.53272       53.31582348        1.11379973
        9.63241       49.88815929        1.10772137
        9.73210       53.11758404        1.14085104
        9.83180       52.58997067        1.18281801
        9.93149       54.03945592        1.19048587
       10.03118       54.41881528        1.14950384
       10.13088       50.39178864        1.07949566
       10.23057       53.21612708        1.16181505
       10.33026       54.04261584        1.21025731
       10.42996       52.61237512        1.17771451
       10.52965       51.85924982        1.13233836
       10.62934       54.36173918        1.16222500
       10.72904       53.60431760        1.17113712
       10.82873       55.49560102        1.18569241
       10.92842       54.29236691        1.19237539
       11.02812       55.17611717        1.14523303
       11.12781       52.41130935        1.15609565
       11.22750       52.48327412        1.16841790
       11.32720       53.98367366        1.21693961
       11.42689       56.52486091        1.20215665
       11.52658       55.02094030        1.17185912
       11.62628       57.02479828        1.20603746
       11.72597       56.55267655        1.22652384
       11.82567       57.83297836        1.27487837
       11.92536       62.31640849        1.23863292
       12.02505       63.01518378        1.25138812
       12.12475       65.86401201        1.27832646
       12.22444       73.08891026        1.42826321
       12.32413       77.61959572        1.49447109
       12.42383       83.00533187        1.46703586
       12.52352       90.03806289        1.51862417
       12.62321      102.17071829        1.66394264
       12.72291      121.14475954        1.76370604
       12.82260      140.50715785        2.06531127
       12.92229      150.33955911        1.94012007
       13.02199      176.56980219        2.08668961
       13.12168      201.00180282        2.26553961
       13.22137      238.81594612        2.55109389
       13.32107      267.88619683        2.78972036
       13.42076      302.87345226        2.85682835
       13.52045      331.17939594        3.02458889
       13.62015      346.62861095        2.99999198
       13.71984      336.99860667        3.08278000
       13.81953      312.08241249        3.01645962
       13.91923      289.86658300        2.73146519
       14.01892      224.24588203        2.33722179
       14.11861      176.32439779        2.16167295
       14.21831      141.01704151        1.93458035
       14.31800      110.87344827        1.80523232
       14.41769       88.18399426        1.55000754
       14.51739       75.99284739        1.40362115
       14.61708       64.04869971        1.29152823
       14.71677       57.45213843        1.24299951
       14.81647       52.95480249        1.24998467
       14.91616       53.46449489        1.15506645
       15.01585       51.43157927        1.15324182
       15.11555       52.33282757        1.17682388
       15.21524       49.85523870        1.18373530
       15.31493       50.56211993        1.22087543
       15.41463       49.65247929        1.17136561
       15.51432       48.57278963        1.12261961
       15.61402       48.97625991        1.15583403
       15.71371       48.83620974        1.14624667
       15.81340       48.89840306        1.19319388
       15.91310       49.03493493        1.16099752
       16.01279       50.20927656        1.12492284
       16.11248       49.42639519        1.14605874
       16.21218       51.12079451        1.19790846
       16.31187       48.26690178        1.16671965
       16.41156       50.29559079        1.16889295
       16.51126       49.00125875        1.17320916
       16.61095       52.05463477        1.16607959
       16.71064       51.51301062        1.19664892
       16.81034       55.13665486        1.24192736
       16.91003       53.08840451        1.18341087
       17.00972       58.40079444        1.19177692
       17.10942       57.09688302        1.24543252
       17.20911       61.48729463        1.30402808
       17.30880       66.84653549        1.37170963
       17.40850       70.20439710        1.40554385
       17.50819       74.25953686        1.40382694
       17.60788       74.39383340        1.44871627
       17.70758       73.51453935        1.44601712
       17.80727       74.67946064        1.47548350
       17.90696       71.86939696        1.35321261
       18.00666       67.71882299        1.33643523
       18.10635       64.80562390        1.27153558
       18.20604       61.25220948        1.35597016
       18.30574       57.14601235        1.24809007
       18.40543       57.16794102        1.21744910
       18.50512       54.37641964        1.22470786
       18.60482       53.34746668        1.19399685
       18.70451       53.89566220        1.26825948
       18.80420       50.56033121        1.15384997
       18.90390       49.76721462        1.13251212
       19.00359       51.44940099        1.12145958
       19.10328       49.39954822        1.16253094
       19.20298       51.40908013        1.22292938
       19.30267       47.99575750        1.13461040
       19.40237       46.87548929        1.10855652
       19.50206       46.30597364        1.12948044
       19.60175       47.37466389        1.12967189
       19.70145       47.94919237        1.19175117
       19.80114       45.95919740        1.10652332
       19.90083       48.53115066        1.09873657
       20.00053       46.91329784        1.09937259
       20.10022       48.06242909        1.12106552
       20.19991       48.96691550        1.20980746
       20.29961       49.94962205        1.15778434
       20.39930       51.17140757        1.20731133
       20.49899       50.49992849        1.17849957
       20.59869       53.45741499        1.23481543
       20.69838       55.43650122        1.30392638
       20.79807       55.29496240        1.24208989
       20.89777       54.67329716        1.20711991
       20.99746       55.98507188        1.23371768
       21.09715       58.14188396        1.32439354
       21.19685       57.65678941        1.31196061
       21.29654       61.45918396        1.32151417
       21.39623       60.20971605        1.30802302
       21.49593       57.25123536        1.25712139
       21.59562       54.28520615        1.25347069
       21.69531       52.37331829        1.28052426
       21.79501       49.74785008        1.14157985
       21.89470       47.42154625        1.08940022
       21.99439       45.06363112        1.10690431
       22.09409       46.99296928        1.13322925
       22.19378       46.79127730        1.20088505
       22.29347       47.18320612        1.12312734
       22.39317       45.14590782        1.12699179
       22.49286       46.08781595        1.13781529
       22.59255       47.48389001        1.16855709
       22.69225       50.09454529        1.26494216
       22.79194       47.88519807        1.11061534
       22.89163       48.47824640        1.09564558
       22.99133       49.34469345        1.13608174
       23.09102       52.48968632        1.21702290
       23.19072       53.10186270        1.22701303
       23.29041       53.29890992        1.21399018
       23.39010       54.10462533        1.23598042
       23.48980       54.84725765        1.24898462
       23.58949       52.11045782        1.23363147
       23.68918       51.96483909        1.29542192
       23.78888       49.53967808        1.12712192
       23.88857       48.15009430        1.12568756
       23.98826       48.61511375        1.15639515
       24.08796       46.23056372        1.10561380
       24.18765       47.55919031        1.20163215
       24.28734       46.37772401        1.12972462
       24.38704       46.64682404        1.15194464
       24.48673       47.71294322        1.16091144
       24.58642       45.92698680        1.17658960
       24.68612       44.23477846        1.15311566
       24.78581       46.16320099        1.08597401
       24.88550       45.40680289        1.07657247
       24.98520       47.31252343        1.13965827
       25.08489       45.08991232        1.13469320
       25.18458       46.91553370        1.18182564
       25.28428       48.85570775        1.16246191
       25.38397       49.91243008        1.16930239
       25.48366       49.88135575        1.17592996
       25.58336       56.05865959        1.29962887
       25.68305       58.63991546        1.30375408
       25.78274       67.74276608        1.32289887
       25.88244       84.10405063        1.51187910
       25.98213      107.08438709        1.72083954
       26.08182      131.70673206        1.95949891
       26.18152      155.85946187        2.18409328
       26.28121      182.49056485        2.23660251
       26.38090      201.84297316        2.37296594
       26.48060      201.44683419        2.43590613
       26.58029      186.29269909        2.44291014
       26.67998      163.40656787        2.15999466
       26.77968      135.47137428        1.94243178
       26.87937      105.17057142        1.68602607
       26.97907       85.68285562        1.50865843
       27.07876       75.82294976        1.52789585
       27.17845       73.74251586        1.43992891
       27.27815       78.30714120        1.44927841
       27.37784       79.24491789        1.51474799
       27.47753       86.17966908        1.55666203
       27.57723       86.83500148        1.63690922
       27.67692       86.63540343        1.59593002
       27.77661       79.09448763        1.45513526
       27.87631       71.98875645        1.36493720
       27.97600       63.48132189        1.31035503
       28.07569       59.94532690        1.34758086
       28.17539       53.73898222        1.22124079
       28.27508       49.54757173        1.17300828
       28.37477       51.87138143        1.22886967
       28.47447       51.78365056        1.21823685
       28.57416       50.08595355        1.29521394
       28.67385       52.20825139        1.17657376
       28.77355       55.81439426        1.19472206
       28.87324       58.95306740        1.26068898
       28.97293       59.81694000        1.27289033
       29.07263       59.99232720        1.38955466
       29.17232       59.25671259        1.26025925
       29.27201       60.54593602        1.29749504
       29.37171       55.06749030        1.27268973
       29.47140       54.61707435        1.25283460
       29.57109       50.61241082        1.27870126
       29.67079       51.35175567        1.17262261
       29.77048       48.08991277        1.13727191
       29.87017       46.86388162        1.10059826
       29.96987       48.38130943        1.17260528
       30.06956       48.22541888        1.20779917
       30.16925       47.04996700        1.12322577
       30.26895       48.22338253        1.14153719
       30.36864       50.36930658        1.18581444
       30.46833       52.30620449        1.22072507
       30.56803       54.64966625        1.31816469
       30.66772       56.56453955        1.24802869
       30.76742       60.44355432        1.26444449
       30.86711       64.30774806        1.33039257
       30.96680       65.08340090        1.34615571
       31.06650       63.17746054        1.39060112
       31.16619       62.22619030        1.29757940
       31.26588       61.67511022        1.28404397
       31.36558       60.05294075        1.28357052
       31.46527       59.93095652        1.33420928
       31.56496       61.39197530        1.37212644
       31.66466       64.36521005        1.31402517
       31.76435       74.26614401        1.41045963
       31.86404       83.17743313        1.47343877
       31.96374       87.99561781        1.55084842
       32.06343       90.93928806        1.63164833
       32.16312       83.91801426        1.47266263
       32.26282       79.09454280        1.46445902
       32.36251       73.81165995        1.47112054
       32.46220       68.18100294        1.43904766
       32.56190       63.63905096        1.41477761
       32.66159       62.15129033        1.32769863
       32.76128       59.36188921        1.26833697
       32.86098       57.68903430        1.26904412
       32.96067       55.11303918        1.25581516
       33.06036       55.41853470        1.28228397
       33.16006       53.44441086        1.18581522
       33.25975       52.52370060        1.21370787
       33.35944       54.95128778        1.24827379
       33.45914       57.44137049        1.32490277
       33.55883       59.43517675        1.35094787
       33.65852       61.17984253        1.27816360
       33.75822       65.86068977        1.32402605
       33.85791       73.79802130        1.40753927
       33.95760       79.97358449        1.50869569
       34.05730       91.13632437        1.59530910
       34.15699      104.04013101        1.67785640
       34.25668      115.11502160        1.75894066
       34.35638      140.70641497        1.99574761
       34.45607      183.91777399        2.40488676
       34.55577      223.76772153        2.52863011
       34.65546      289.56726914        2.76057164
       34.75515      380.54031642        3.22896672
       34.85485      441.36058981        3.45288066
       34.95454      462.87027176        3.64758003
       35.05423      447.09692882        3.70678599
       35.15393      390.97218674        3.25271564
       35.25362      305.55212426        2.91712488
       35.35331      227.95480244        2.58302959
       35.45301      165.97861063        2.29838333
       35.55270      128.25985511        1.96672544
       35.65239       99.43173316        1.67187922
       35.75209       80.78545944        1.49547427
       35.85178       78.27333719        1.47011932
       35.95147       75.59578811        1.47872023
       36.05117       71.41511663        1.40751608
       36.15086       64.08733897        1.28176698
       36.25055       61.04732648        1.30688430
       36.35025       59.68392036        1.31746871
       36.44994       55.95929885        1.30103847
       36.54963       53.85033832        1.22509609
       36.64933       54.72688151        1.21663746
       36.74902       53.24236622        1.21250043
       36.84871       55.51306527        1.22925290
       36.94841       52.22691233        1.28926771
       37.04810       50.86270866        1.12181007
       37.14779       51.27055873        1.14941095
       37.24749       48.98945522        1.15471193
       37.34718       50.44754551        1.20172281
       37.44687       50.53340947        1.29199014
       37.54657       48.58435617        1.15645280
       37.64626       46.07028352        1.12171685
       37.74595       48.56092454        1.13373183
       37.84565       50.50552561        1.22345729
       37.94534       47.20622176        1.20485471
       38.04503       47.82605628        1.09612883
       38.14473       48.45883983        1.11419391
       38.24442       49.48944365        1.14660010
       38.34412       48.32109610        1.18447107
       38.44381       47.81149828        1.27396477
       38.54350       48.89514883        1.14846827
       38.64320       49.86961930        1.15638033
       38.74289       52.59469012        1.20320195
       38.84258       53.79628511        1.21986273
       38.94228       56.64191495        1.31300954
       39.04197       61.05150325        1.22935604
       39.14166       64.30086460        1.31256357
       39.24136       70.60725516        1.37199617
       39.34105       71.09507020        1.42474220
       39.44074       72.14876367        1.56558403
       39.54044       74.32734668        1.42092728
       39.64013       69.62440000        1.37082034
       39.73982       65.33187736        1.33308371
       39.83952       63.05139404        1.30067280
       39.93921       57.85095966        1.32080070
       40.03890       56.96895627        1.19973011
       40.13860       57.90407272        1.20801608
       40.23829       56.36881912        1.23399457
       40.33798       58.24584353        1.29355945
       40.43768       58.34046540        1.35451885
       40.53737       56.09233216        1.23261008
       40.63706       55.30344299        1.24957418
       40.73676       57.56614313        1.27295708
       40.83645       61.12330380        1.32281213
       40.93614       65.42927180        1.39175016
       41.03584       67.36109892        1.32899829
       41.13553       76.66506866        1.41975806
       41.23522       89.06968560        1.56787264
       41.33492      107.98483866        1.80780122
       41.43461      129.04137548        2.04023796
       41.53430      153.00460150        2.08128987
       41.63400      180.86606690        2.31337810
       41.73369      194.69357391        2.34806242
       41.83338      200.83557874        2.44867806
       41.93308      208.96890075        2.47614361
       42.03277      205.51672295        2.24395391
       42.13247      228.93981651        2.49018404
       42.23216      267.08675360        2.69537466
       42.33185      337.69085791        3.25631391
       42.43155      414.26232717        3.55668801
       42.53124      506.92064498        3.81474855
       42.63093      581.88937619        4.09980223
       42.73063      612.82190338        4.22842252
       42.83032      591.90529537        4.22780645
       42.93001      542.30972298        3.89225840
       43.02971      435.13251544        3.28797248
       43.12940      318.65183761        2.86578872
       43.22909      224.34814837        2.52428297
       43.32879      161.08142373        2.25173490
       43.42848      123.86576349        1.93072621
       43.52817       91.54178227        1.58742508
       43.62787       77.96121527        1.46001143
       43.72756       72.67606206        1.44306341
       43.82725       63.71404177        1.41057335
       43.92695       59.71931165        1.23827581
       44.02664       58.54343379        1.22014766
       44.12633       58.05888557        1.26037362
       44.22603       57.44444334        1.30489126
       44.32572       54.72688787        1.34225211
       44.42541       57.31127464        1.31154722
       44.52511       56.78721024        1.27039808
       44.62480       56.69329639        1.28728637
       44.72449       61.13276138        1.29560387
       44.82419       63.71225105        1.48427140
       44.92388       67.56477659        1.27489251
       45.02357       74.58782454        1.35069242
       45.12327       81.23816960        1.45201674
       45.22296       91.35490036        1.58044940
       45.32265      112.18651039        1.93808341
       45.42235      134.48457876        1.93274454
       45.52204      167.09403410        2.13396678
       45.62174      206.24758859        2.41588842
       45.72143      250.14110258        2.66337416
       45.82112      269.37133102        3.02692910
       45.92082      295.35883569        2.69312025
       46.02051      286.64538532        2.70903878
       46.12020      260.13582478        2.58715342
       46.21990      217.95874812        2.48552121
       46.31959      177.37719452        2.41868333
       46.41928      143.62894910        2.00867327
       46.51898      113.54692314        1.79486458
       46.61867       86.41887878        1.55713824
       46.71836       74.88747452        1.48665824
       46.81806       68.81862264        1.47774815
       46.91775       59.66713962        1.19916979
       47.01744       59.63359744        1.22748302
       47.11714       60.06459055        1.26006400
       47.21683       64.02957074        1.33942337
       47.31652       69.17720278        1.51899154
       47.41622       79.95903799        1.53933991
       47.51591       91.24036162        1.64764012
       47.61560      106.50130416        1.76562341
       47.71530      130.73611285        1.97837037
       47.81499      150.79404144        2.17906550
       47.91468      179.75821577        2.08281550
       48.01438      198.09540536        2.18841115
       48.11407      205.23358182        2.31119855
       48.21376      207.71115651        2.42779834
       48.31346      189.69444648        2.40149575
       48.41315      162.80787216        2.07224022
       48.51284      136.91403428        1.96234585
       48.61254      110.02006527        1.75086171
       48.71223       89.04543342        1.60304574
       48.81192       75.75529520        1.47474827
       48.91162       64.57333464        1.22031863
       49.01131       57.34863513        1.19018826
       49.11100       55.30875036        1.21092508
       49.21070       52.16216197        1.23452564
       49.31039       52.57218472        1.27556558
       49.41009       46.87874017        1.13766772
       49.50978       48.68830373        1.18348446
       49.60947       48.61552796        1.19125351
       49.70917       48.43775241        1.23315652
       49.80886       50.43121025        1.22470017
       49.90855       51.39498086        1.12627111
       50.00825       49.31763070        1.12649537
       50.10794       52.01520281        1.18333515
       50.20763       49.21576229        1.20246381
       50.30733       51.71093755        1.29121431
       50.40702       53.42218634        1.23080363
       50.50671       52.23877194        1.22061818
       50.60641       55.17119404        1.25631667
       50.70610       56.17383451        1.30444294
       50.80579       57.37378911        1.30095998
       50.90549       58.40772294        1.18349010
       51.00518       54.00240367        1.14789493
       51.10487       54.69712008        1.19420657
       51.20457       54.17142558        1.26519240
       51.30426       54.08719875        1.25762853
       51.40395       56.40880423        1.23135704
       51.50365       56.32459077        1.24448684
       51.60334       57.84344271        1.28613014
       51.70303       60.22625163        1.39376251
       51.80273       61.43446766        1.29127177
       51.90242       59.49962666        1.18721684
       52.00211       63.09249669        1.22847300
       52.10181       60.63221790        1.24229108
       52.20150       63.26839851        1.39765592
       52.30119       62.53539483        1.33850409
       52.40089       61.70241149        1.30870219
       52.50058       59.45236901        1.30878400
       52.60027       60.07838193        1.33365577
       52.69997       56.57888693        1.41818660
       52.79966       59.59493659        1.22381023
       52.89935       59.69388968        1.18181462
       52.99905       68.04319149        1.28269420
       53.09874       76.79843043        1.40694026
       53.19844       88.76383536        1.73258335
       53.29813      104.03322905        1.66748962
       53.39782      122.79245260        1.87493460
       53.49752      138.61118347        2.00183354
       53.59721      158.90798017        2.14295392
       53.69690      161.36763797        2.36946800
       53.79660      168.01019673        2.02566670
       53.89629      166.51528971        1.99478329
       53.99598      154.05395270        1.96485440
       54.09568      139.66846135        1.95294521
       54.19537      125.58956368        2.01898951
       54.29506      107.40024798        1.71440006
       54.39476       97.54952007        1.64618778
       54.49445       91.31213197        1.59362129
       54.59414       85.06200194        1.56128524
       54.69384       83.59819725        1.65115271
       54.79353       86.12871794        1.43734848
       54.89322       77.58437811        1.35889804
       54.99292       73.27211287        1.35908996
       55.09261       69.61084274        1.37747232
       55.19230       65.72514879        1.43721780
       55.29200       66.80099771        1.34867463
       55.39169       63.34179501        1.35495672
       55.49138       58.96660280        1.30229809
       55.59108       54.87946256        1.29647366
       55.69077       54.30711938        1.32355204
       55.79046       54.59066291        1.16018492
       55.89016       56.16999471        1.17410121
       55.98985       55.17012293        1.17102195
       56.08954       56.68559257        1.22617399
       56.18924       59.22894900        1.35275448
       56.28893       67.02267584        1.31731412
       56.38862       77.28427850        1.46361210
       56.48832       85.78505499        1.56881253
       56.58801      101.43922616        1.75603701
       56.68770      110.11119943        1.88870007
       56.78740      114.37522944        1.64758601
       56.88709      114.80555750        1.66718795
       56.98679      109.99377391        1.63315719
       57.08648      101.18670523        1.66015128
       57.18617       90.90250575        1.62887756
       57.28587       81.48211468        1.44056417
       57.38556       72.81509760        1.44933549
       57.48525       64.60266140        1.39107068
       57.58495       58.56639743        1.35460543
       57.68464       54.74990303        1.32099573
       57.78433       55.93143358        1.16806759
       57.88403       51.78034270        1.13682303
       57.98372       52.05349253        1.15797882
       58.08341       50.58540020        1.23419776
       58.18311       54.08127005        1.30556008
       58.28280       51.49464705        1.19981591
       58.38249       52.95109202        1.27136570
       58.48219       52.15760693        1.28901458
       58.58188       53.06798378        1.31447719
       58.68157       50.47748992        1.25612944
       58.78127       53.01183666        1.12608492
       58.88096       53.20194549        1.11146480
       58.98065       52.86976696        1.15016466
       59.08035       56.03884236        1.26367116
       59.18004       59.54016137        1.32147394
       59.27973       60.21389994        1.25384867
       59.37943       62.17612945        1.31619079
       59.47912       67.78171085        1.43082807
       59.57881       74.09075475        1.56742825
       59.67851       74.56013151        1.46591581
       59.77820       82.91446932        1.42141632
       59.87789       93.83440011        1.50720491
       59.97759       99.70085132        1.62539510
       60.07728      101.37088043        1.77485006
       60.17697      104.18321732        1.71418510
       60.27667      111.49904595        1.72454223
       60.37636      105.92472598        1.71315095
       60.47605      101.19633641        1.74661133
       60.57575      100.68210834        1.90935796
       60.67544       97.50187460        1.61417644
       60.77514       83.58334688        1.42022356
       60.87483       78.25252836        1.34737193
       60.97452       71.55515073        1.35709649
       61.07422       70.18289226        1.50981134
       61.17391       66.13300153        1.26938314
       61.27360       66.45426504        1.31766313
       61.37330       65.34808149        1.35505735
       61.47299       68.82523270        1.45193480
       61.57268       70.05627399        1.66588075
       61.67238       71.82607987        1.37485820
       61.77207       70.10275599        1.32276962
       61.87176       71.68809863        1.32281313
       61.97146       70.11207397        1.35810734
       62.07115       67.89892281        1.51355898
       62.17084       68.32769654        1.33026572
       62.27054       65.70981935        1.36009278
       62.37023       62.45684879        1.37866654
       62.46992       61.27275557        1.41227858
       62.56962       59.87702607        1.56795276
       62.66931       60.57445648        1.27049566
       62.76900       60.26988797        1.23517826
       62.86870       68.65310275        1.28985024
       62.96839       77.70250822        1.41637789
       63.06808       81.70023373        1.61639343
       63.16778       90.62275161        1.51153962
       63.26747      106.33755692        1.69521041
       63.36716      116.35778021        1.84080200
       63.46686      131.72035190        2.01827101
       63.56655      146.93164386        2.26566455
       63.66624      163.86518318        2.03469715
       63.76594      176.23496669        2.05034116
       63.86563      193.15132130        2.14086436
       63.96532      196.84977418        2.26164660
       64.06502      189.33322267        2.37550200
       64.16471      177.03324576        2.12384545
       64.26440      156.20984010        2.07556457
       64.36410      139.50662226        2.00022988
       64.46379      118.51773248        1.94866782
       64.56349      101.36879248        1.83343464
       64.66318       85.82901215        1.47606401
       64.76287       76.10246390        1.37252348
       64.86257       64.50557974        1.26133320
       64.96226       58.16737970        1.25441705
       65.06195       55.46137571        1.32440722
       65.16165       52.23826359        1.15937263
       65.26134       54.43516492        1.21130617
       65.36103       53.61413506        1.25436861
       65.46073       53.48506230        1.29401548
       65.56042       52.95655555        1.34480085
       65.66011       52.25294439        1.16476470
       65.75981       57.34570210        1.20821524
       65.85950       60.56686031        1.23389517
       65.95919       60.31828956        1.28895318
       66.05889       63.00005295        1.36265186
       66.15858       68.24367922        1.34882525
       66.25827       80.40930791        1.51471515
       66.35797       88.39740657        1.65473244
       66.45766      101.78742144        1.88728548
       66.55735      119.60064088        2.04615738
       66.65705      132.14024549        1.90825751
       66.75674      143.36539722        1.93725012
       66.85643      160.35089472        2.02632194
       66.95613      170.74586475        2.17458338
       67.05582      173.57500377        2.20905128
       67.15551      171.23648463        2.08778607
       67.25521      160.98071766        2.12416893
       67.35490      147.47559487        2.13969343
       67.45459      130.17168565        2.11926913
       67.55429      110.56851649        1.87054322
       67.65398       95.65944440        1.55913797
       67.75367       81.95732957        1.43095232
       67.85337       75.30745292        1.38838514
       67.95306       73.90567792        1.47072083
       68.05275       77.90164318        1.42996603
       68.15245       83.63977791        1.46916740
       68.25214       97.25526360        1.68215609
       68.35184      104.25427717        1.81536197
       68.45153      108.14131715        2.03546174
       68.55122      115.78223704        1.81468194
       68.65092      124.28176031        1.75274153
       68.75061      129.39989148        1.80709091
       68.85030      130.16848825        1.84732830
       68.95000      127.29797531        2.07101443
       69.04969      120.80138794        1.70348909
       69.14938      107.21751818        1.64965333
       69.24908       92.31746270        1.63410830
       69.34877       80.60721876        1.57884646
       69.44846       74.53421301        1.76082057
       69.54816       70.58191719        1.33592853
       69.64785       61.62234581        1.23041650
       69.74754       55.50097013        1.17926422
       69.84724       53.26422174        1.18532659
       69.94693       52.02557479        1.32202973
       70.04662       51.65232226        1.08324814
       70.14632       46.37535623        1.06714362
       70.24601       46.61889538        1.14563176
       70.34570       46.46073297        1.21023346
       70.44540       47.20785462        1.43739823
       70.54509       49.26364221        1.14942032
       70.64478       48.29266911        1.13637920
       70.74448       49.55704317        1.16945729
       70.84417       49.85074952        1.21713002
       70.94386       51.75475951        1.36143470
       71.04356       49.90597962        1.10620666
       71.14325       53.61821484        1.19168760
       71.24294       53.21695061        1.24912926
       71.34264       55.13172747        1.34821508
       71.44233       55.38573955        1.50793781
       71.54202       54.29150169        1.21541554
       71.64172       53.42114575        1.17274079
       71.74141       52.54325303        1.14192405
       71.84110       54.03246473        1.19876841
       71.94080       50.42424000        1.26175359
       72.04049       53.43752647        1.09951309
       72.14019       51.45712045        1.12408088
       72.23988       51.53146638        1.17699079
       72.33957       51.92439289        1.31972715
       72.43927       53.39603435        1.47327486
       72.53896       53.06115798        1.17752432
       72.63865       53.10187086        1.15141972
       72.73835       55.84578650        1.15493559
       72.83804       56.50853934        1.22681339
       72.93773       60.99943620        1.35415170
       73.03743       62.52272886        1.19006697
       73.13712       66.54962073        1.29498384
       73.23681       65.15879130        1.34613986
       73.33651       67.01006992        1.50222091
       73.43620       65.90233050        1.61355059
       73.53589       66.42019456        1.30676208
       73.63559       69.33766012        1.31432195
       73.73528       69.31913429        1.30817457
       73.83497       64.75111924        1.34018986
       73.93467       64.65688089        1.41019178
       74.03436       64.84566139        1.24984434
       74.13405       60.13146416        1.25451785
       74.23375       59.28183113        1.29745686
       74.33344       61.15578211        1.45081719
       74.43313       60.92565120        1.50260965
       74.53283       57.51531142        1.24028111
       74.63252       60.75494061        1.26563735
       74.73221       60.49877901        1.25677310
       74.83191       64.92789594        1.38131900
       74.93160       66.86529091        1.41764511
       75.03129       71.32214687        1.30182238
       75.13099       74.42461815        1.37753956
       75.23068       85.87098737        1.54395770
       75.33037       96.36115056        1.79836215
       75.43007      107.41048419        1.92669053
       75.52976      116.20101933        1.74101774
       75.62945      135.87442677        1.88210724
       75.72915      146.10652589        1.94447587
       75.82884      154.82470311        2.15561346
       75.92854      156.02368789        2.03137622
       76.02823      164.32428456        1.95564150
       76.12792      170.06685207        2.07979617
       76.22762      163.82144837        2.15313043
       76.32731      155.71416718        2.37009890
       76.42700      155.97098940        2.23881500
       76.52670      137.45321036        1.93770223
       76.62639      127.74477802        1.84384755
       76.72608      112.08072677        1.69760660
       76.82578      103.45980679        1.87887282
       76.92547      103.02892818        1.50180676
       77.02516      103.65218417        1.56129714
       77.12486      109.18167895        1.68360745
       77.22455      120.64351362        1.88513025
       77.32424      127.50992184        2.38144085
       77.42394      137.91223397        1.97823094
       77.52363      142.90522090        1.94621964
       77.62332      153.04697063        2.00553341
       77.72302      163.25712566        2.07670841
       77.82271      165.33020430        2.45099848
       77.92240      172.17425558        1.91572005
       78.02210      171.01638763        2.06009083
       78.12179      162.10266492        2.14153595
       78.22148      150.49815285        2.18120820
       78.32118      147.52484136        2.50566546
       78.42087      130.91215119        1.85665404
       78.52056      118.36912561        1.82244771
       78.62026      101.92633582        1.67699344
       78.71995       90.03720174        1.58087180
       78.81964       82.94184420        1.69447077
       78.91934       74.32503903        1.24259850
       79.01903       67.57584704        1.29875870
       79.11872       64.14590428        1.31677599
       79.21842       60.54191490        1.36452638
       79.31811       59.09925391        1.51854497
       79.41780       59.25131181        1.23344568
       79.51750       59.12671744        1.25199206
       79.61719       58.95483326        1.25384230
       79.71689       58.12334179        1.29253441
       79.81658       59.99462480        1.39211836
       79.91627       62.15821699        1.20121131
       80.01597       60.60423651        1.21907237
       80.11566       61.30170758        1.28171678
       80.21535       66.55120471        1.42781649
       80.31505       64.90057397        1.67605208
       80.41474       62.94597872        1.26827516
       80.51443       67.12612258        1.30416440
       80.61413       70.75948010        1.38356892
       80.71382       73.55354091        1.45935957
       80.81351       74.22353643        1.64730407
       80.91321       80.82302628        1.26784058
       81.01290       89.48176802        1.44036721
       81.11259      105.41353447        1.68800050
       81.21229      115.37596288        1.91036704
       81.31198      129.43608598        2.25774064
       81.41167      146.81016175        1.88322917
       81.51137      171.27318359        2.09362053
       81.61106      196.54308665        2.34321214
       81.71075      216.59778758        2.54704781
       81.81045      231.13527059        2.78832940
       81.91014      258.99420108        2.27110213
       82.00983      292.85325758        2.58363377
       82.10953      309.90945415        2.97447110
       82.20922      325.01643120        3.38906114
       82.30891      341.45338438        3.64421508
       82.40861      347.40532758        2.98971682
       82.50830      342.63492174        2.96095618
       82.60799      340.22337021        3.17807404
       82.70769      335.44370407        3.43366285
       82.80738      330.18387405        3.25434830
       82.90707      316.63436701        2.58678713
       83.00677      296.52498354        2.66579636
       83.10646      272.79744852        3.00663799
       83.20615      256.85248952        3.24619150
       83.30585      237.10744725        2.95328435
       83.40554      210.42851399        2.31161375
       83.50524      180.13734534        2.08542017
       83.60493      157.63324945        2.14812195
       83.70462      136.31218396        2.25140802
       83.80432      121.34671932        1.85587865
       83.90401      101.77968256        1.42524343
       84.00370       86.15108509        1.36727158
       84.10340       77.76398612        1.55212242
       84.20309       70.84069984        1.79823862
       84.30278       67.99508383        1.43275566
       84.40248       66.02988835        1.24608128
       84.50217       64.37798322        1.20703223
       84.60186       64.25475112        1.36355139
       84.70156       65.53016998        1.80203159
       84.80125       63.13084693        1.23132031
       84.90094       64.26552366        1.11605786
       85.00064       62.87420213        1.13730182
       85.10033       65.54136864        1.37434944
       85.20002       64.65706664        2.34111974
       85.29972       65.82648789        1.24612449
       85.39941       63.90274478        1.25169460
       85.49910       64.56810813        1.22358967
       85.59880       65.75065243        1.38848270
       85.69849       67.73262597        2.53027645
       85.79818       65.04659348        1.16893179
       85.89788       63.18826807        1.12451201
       85.99757       66.79211267        1.18808198
       86.09726       65.41231166        1.34986474
       86.19696       65.14259932        2.58724515
       86.29665       64.77516490        1.22088360
       86.39634       64.34803228        1.23795147
       86.49604       61.77113088        1.19445914
       86.59573       61.16164065        1.26635862
       86.69542       65.82583392        2.74725231
       86.79512       59.00650872        1.07946471
       86.89481       55.71963184        1.03406750
       86.99451       53.95066348        1.05463810
       87.09420       54.79826010        1.18544699
       87.19389       56.74395759        2.85767608
       87.29359       53.63381609        1.12582986
       87.39328       52.90532411        1.13323575
       87.49297       50.11547755        1.07060950
       87.59267       49.13501130        1.08089341
       87.69236       46.98678372        3.16261610
       87.79205       48.84148515        1.00451512
       87.89175       49.99156441        1.00813202
       87.99144       50.35946946        1.05435959
       88.09113       49.97765645        1.11638625
       88.19083       54.75223104        6.18440903
       88.29052       50.02691482        1.12397652
       88.39021       49.63093547        1.12696586
       88.48991       49.44156922        1.07949588
       88.58960       51.26241218        1.06454271
       88.68929       49.37313385        8.09272799
       88.78899       50.53565526        1.02019765
       88.88868       51.06895464        1.00318664
       88.98837       52.01669106        1.05307929
       89.08807       50.52761227        1.06303505
       89.18776       59.74401762        9.40831798
       89.28745       50.50532496        1.07981584
       89.38715       50.22020282        1.08781251
       89.48684       52.82379522        1.09188261
       89.58653       57.41677702        1.11541414
       89.68623       51.25874674        8.54193044
       89.78592       59.04988657        1.09919033
       89.88561       64.69189794        1.12813971
       89.98531       65.28240670        1.16207309
       90.08500       73.46752539        1.27891261
       90.18469       80.04280025       11.13591726
       90.28439       81.00838735        1.37189763
       90.38408       85.96439981        1.43718101
       90.48377       91.07018740        1.45169365
       90.58347       97.31934367        1.47737177
       90.68316       94.31678806       11.32784951
       90.78286      100.93873849        1.44040990
       90.88255       97.84502591        1.37976601
       90.98224      102.53573817        1.46160243
       91.08194      104.01176205        1.52045949
       91.18163       92.24130769       11.42098814
       91.28132      101.27733719        1.54459740
       91.38102       99.66015291        1.57278947
       91.48071       94.85900751        1.49653376
       91.58040       86.69514224        1.38326147
       91.68010       84.56576881       10.33474638
       91.77979       80.09726150        1.27606097
       91.87948       76.63538667        1.22875991
       91.97918       70.25805797        1.22143865
       92.07887       70.39876446        1.27363402
       92.17856       65.34277068        9.32805375
       92.27826       66.06478561        1.27407830
       92.37795       65.71885967        1.30086752
       92.47764       67.17516315        1.24858578
       92.57734       70.06032493        1.23712026
       92.67703       73.47158699        8.22463015
       92.77672       78.52319867        1.26266907
       92.87642       84.82171240        1.28755675
       92.97611       91.60951280        1.39755794
       93.07580       95.18989691        1.62613214
       93.17550       99.16867284        3.12145622
       93.27519       97.25661476        1.51513571
       93.37488      100.56069827        1.49780156
       93.47458      103.41723729        1.53577985
       93.57427      103.71446768        1.77812102
       93.67396      104.59182981        2.41319590
       93.77366      106.81707871        1.51086923
       93.87335      106.32455797        1.43981973
       93.97304      102.47015043        1.47283060
       94.07274       98.79889605        1.87736436
       94.17243       94.21812315        2.09152543
       94.27212       90.58085222        1.52724149
       94.37182       88.56547703        1.47169188
       94.47151       82.66919669        1.36139993
       94.57121       77.89229575        1.74375183
       94.67090       74.80724088        1.72847440
       94.77059       74.23113213        1.33845657
       94.87029       68.80014930        1.17151895
       94.96998       65.74499331        1.15960038
       95.06967       63.78793685        1.31663703
       95.16937       63.24256428        1.79459492
       95.26906       61.21388704        1.36385778
       95.36875       59.24430200        1.21740682
       95.46845       60.24779972        1.17989181
       95.56814       58.66366572        1.33965162
       95.66783       58.06645412        1.49732605
       95.76753       56.00678143        1.21510718
       95.86722       56.64133941        1.03945445
       95.96691       54.35925025        1.05614850
       96.06661       52.74062971        1.33257712
       96.16630       54.22931711        1.44104939
       96.26599       51.10068044        1.25613151
       96.36569       53.26067902        1.15076277
       96.46538       52.75902762        1.10532571
       96.56507       47.98644635        1.30087397
       96.66477       48.34271094        1.27232145
       96.76446       48.68956768        1.14105537
       96.86415       47.39555269        0.97510870
       96.96385       48.36540215        1.01742190
       97.06354       48.13474005        1.37246708
       97.16323       49.14669253        1.32606557
       97.26293       49.49484577        1.25025845
       97.36262       49.74326171        1.16069110
       97.46231       51.59690237        1.08760003
       97.56201       53.19880839        1.40508572
       97.66170       50.73211155        1.23231689
       97.76139       51.30710575        1.12589458
       97.86109       53.13589476        1.03614129
       97.96078       56.44003566        1.09132433
       98.06047       55.67839233        1.50552598
       98.16017       54.10087701        1.31918769
       98.25986       56.47263516        1.28749029
       98.35956       54.42808234        1.19321444
       98.45925       57.94455585        1.14929909
       98.55894       60.74078924        1.53510925
       98.65864       61.54727758        1.32589564
       98.75833       63.15434677        1.25501111
       98.85802       66.05108140        1.19851908
       98.95772       69.04536127        1.21733269
       99.05741       69.40481674        1.69437042
       99.15710       70.97816986        1.47365849
       99.25680       74.98619082        1.46765570
       99.35649       79.44026858        1.43896940
       99.45618       81.70020092        1.36003667
       99.55588       86.24789507        1.86744852
       99.65557       85.67413855        1.53545831
       99.75526       86.96619409        1.45001197
       99.85496       88.50600644        1.39232829
       99.95465       86.33338265        1.34804961
      100.05434       87.87838758        1.93761591
      100.15404       90.72808143        1.65845768
      100.25373       88.56651666        1.61883594
      100.35342       88.08510708        1.60809320
      100.45312       87.04241268        1.45862303
      100.55281       84.63102124        1.88888555
      100.65250       85.56782634        1.54734484
      100.75220       79.56868515        1.38183093
      100.85189       79.53977041        1.32010155
      100.95158       76.70752944        1.26162313
      101.05128       76.21445536        1.79287526
      101.15097       73.68442919        1.45683997
      101.25066       72.05851952        1.42332428
      101.35036       74.01809346        1.45515313
      101.45005       74.24097699        1.37044274
      101.54974       73.83873757        1.70227810
      101.64944       75.51802857        1.40463405
      101.74913       77.63097607        1.34195553
      101.84882       79.07981878        1.31848691
      101.94852       83.93819796        1.43112065
      102.04821       82.72448538        1.71115986
      102.14791       85.96547722        1.57224576
      102.24760       88.52850512        1.58218006
      102.34729       88.70052408        1.57726274
      102.44699       86.53729922        1.58487679
      102.54668       94.22259127        1.73578740
      102.64637       92.24431864        1.53380347
      102.74607       92.72037631        1.46453434
      102.84576       92.48242022        1.43486810
      102.94545       94.23134557        1.64972467
      103.04515       91.28502851        1.71874407
      103.14484       91.08480058        1.60405853
      103.24453       89.72604943        1.56741256
      103.34423       88.96057577        1.54803689
      103.44392       91.03233246        1.69641578
      103.54361       87.24199451        1.61309024
      103.64331       84.07946437        1.44132205
      103.74300       84.90322560        1.38158571
      103.84269       82.51660633        1.33833947
      103.94239       82.54432067        1.60858053
      104.04208       82.42118517        1.55503271
      104.14177       81.29623403        1.50248837
      104.24147       82.34021888        1.51139125
      104.34116       81.58307495        1.51372617
      104.44085       82.19358308        1.72568322
      104.54055       79.91624857        1.54049713
      104.64024       78.52917777        1.43536714
      104.73993       78.98127410        1.37367791
      104.83963       75.33837805        1.29240444
      104.93932       76.18688696        1.57562084
      105.03901       74.08261619        1.46387084
      105.13871       71.01375480        1.37987756
      105.23840       68.35904411        1.35293614
      105.33809       67.65942702        1.35390732
      105.43779       67.41893414        1.57251060
      105.53748       63.71651371        1.37076496
      105.63717       61.27302648        1.23203313
      105.73687       58.40801739        1.14465086
      105.83656       57.76477361        1.10918982
      105.93626       54.64231488        1.36695165
      106.03595       53.54307438        1.22633297
      106.13564       52.91665359        1.17829143
      106.23534       52.75427551        1.19096282
      106.33503       54.06749891        1.21793183
      106.43472       53.00238989        1.42556710
      106.53442       51.95146938        1.22756521
      106.63411       51.41046578        1.10927906
      106.73380       48.91581889        1.03118694
      106.83350       49.79226716        1.02488312
      106.93319       51.69692011        1.35383677
      107.03288       50.97030136        1.19139289
      107.13258       52.07454074        1.16891678
      107.23227       50.68722779        1.16992112
      107.33196       52.90680770        1.19207440
      107.43166       54.10317436        1.44849374
      107.53135       54.04232709        1.24905296
      107.63104       55.67458446        1.15445388
      107.73074       59.71028317        1.14719957
      107.83043       62.40044850        1.15804290
      107.93012       66.55534788        1.58234861
      108.02982       63.13114997        1.34870495
      108.12951       65.35019630        1.30501124
      108.22920       66.23412931        1.29278134
      108.32890       70.74569706        1.32355710
      108.42859       69.39855800        1.66365043
      108.52828       70.13446135        1.41868783
      108.62798       73.41629282        1.31630921
      108.72767       72.39897437        1.25460931
      108.82736       74.09400402        1.29725399
      108.92706       72.79288801        1.62839888
      109.02675       70.97165304        1.40655204
      109.12644       70.86575238        1.37178431
      109.22614       71.44465764        1.37848794
      109.32583       71.44884766        1.50216748
      109.42552       70.47175386        1.57357982
      109.52522       71.76094994        1.43266999
      109.62491       68.74079724        1.33358531
      109.72461       64.99007518        1.23954838
      109.82430       64.30124196        1.15172092
      109.92399       62.54261051        1.47674047
      110.02369       61.55179369        1.28286351
      110.12338       59.74697382        1.25560036
      110.22307       56.98600291        1.21695057
      110.32277       56.81876744        1.24087192
      110.42246       58.19785583        1.52703298
      110.52215       54.66114125        1.25327189
      110.62185       55.50210115        1.19024239
      110.72154       52.77800949        1.08274180
      110.82123       53.92195834        1.13031393
      110.92093       52.86895718        1.30533084
      111.02062       55.37418739        1.23428550
      111.12031       51.88442556        1.20353233
      111.22001       56.40112259        1.23151372
      111.31970       56.43714249        1.33696110
      111.41939       54.76817828        1.36275554
      111.51909       57.65249585        1.26880592
      111.61878       58.90827159        1.20823773
      111.71847       59.98028974        1.13435205
      111.81817       61.14024349        1.24306792
      111.91786       65.60026750        1.35526164
      112.01755       67.38371604        1.34128776
      112.11725       70.64696705        1.38394236
      112.21694       73.02422370        1.40083262
      112.31663       74.71108827        1.56146798
      112.41633       76.54766016        1.55280866
      112.51602       77.24794543        1.43650589
      112.61571       80.84252859        1.40201329
      112.71541       80.81499791        1.32101409
      112.81510       86.02010737        1.52845267
      112.91479       84.94833566        1.54717393
      113.01449       88.28602095        1.54473046
      113.11418       91.26437650        1.56548471
      113.21387       90.03740060        1.54778556
      113.31357       89.99203928        1.71849965
      113.41326       90.29951749        1.63597677
      113.51296       95.88357251        1.58606105
      113.61265       93.04849827        1.50744487
      113.71234       91.43028605        1.42721353
      113.81204       91.93009096        1.63956049
      113.91173       90.53166698        1.57655755
      114.01142       91.20920658        1.56654420
      114.11112       89.13349944        1.54768214
      114.21081       86.47267273        1.53528892
      114.31050       83.93352014        1.71517276
      114.41020       85.32535954        1.59807968
      114.50989       83.55940458        1.48040976
      114.60958       80.51235268        1.40610175
      114.70928       80.66496197        1.35744707
      114.80897       74.14924770        1.47576773
      114.90866       76.26285671        1.41175158
      115.00836       74.74999940        1.39107184
      115.10805       74.93525673        1.40038992
      115.20774       72.39469968        1.39715136
      115.30744       78.65641218        1.67249113
      115.40713       74.45299952        1.47362338
      115.50682       76.23986788        1.40789820
      115.60652       75.15937300        1.34719178
      115.70621       74.01641355        1.28481422
      115.80590       76.05739842        1.51947357
      115.90560       80.21205473        1.41452144
      116.00529       82.58067732        1.45138940
      116.10498       86.76585742        1.50347860
      116.20468       86.99216382        1.54001422
      116.30437       93.65966588        1.90529073
      116.40406       90.74337844        1.63322159
      116.50376       98.83116147        1.61115484
      116.60345      101.26963217        1.56568320
      116.70314      109.73178603        1.58081253
      116.80284      115.73000901        1.92936884
      116.90253      122.58729690        1.78667227
      117.00222      130.08725959        1.82643780
      117.10192      135.70487665        1.91581432
      117.20161      144.98980941        2.00502850
      117.30131      145.48522566        2.40339715
      117.40100      150.51515220        2.05553204
      117.50069      159.13267149        2.00797633
      117.60039      164.08651232        1.95165978
      117.70008      172.92852855        1.94159683
      117.79977      173.40655771        2.38255032
      117.89947      180.11920084        2.11142474
      117.99916      181.98235523        2.14776516
      118.09885      186.06104019        2.21273317
      118.19855      181.82336756        2.29070622
      118.29824      195.72238308        2.60669322
      118.39793      188.45225138        2.32171526
      118.49763      190.08705583        2.20045612
      118.59732      192.11439236        2.13594510
      118.69701      194.15221729        2.23703161
      118.79671      189.98596222        2.38907175
      118.89640      186.59329056        2.20722227
      118.99609      182.59413484        2.18080055
      119.09579      177.07992214        2.17223312
      119.19548      179.35189497        2.38888275
      119.29517      170.91656787        2.42208832
      119.39487      165.79016133        2.19250368
      119.49456      162.94928216        2.04815924
      119.59425      155.14661826        1.94035032
      119.69395      156.57500030        2.05659583
      119.79364      146.76614072        2.01159975
      119.89333      141.36661057        1.91035607
      119.99303      137.89868006        1.84194430
      120.09272      135.90754542        1.87014315
      120.19241      130.57235103        2.06002010
      120.29211      127.01236358        2.01077638
      120.39180      126.56917834        1.91498840
      120.49149      125.31965370        1.77214465
      120.59119      121.63084356        1.69433757
      120.69088      117.16125804        1.78985636
      120.79057      115.06266001        1.73554831
      120.89027      118.78045057        1.73143807
      120.98996      118.94542820        1.71933421
      121.08966      117.00357634        1.71789048
      121.18935      114.25830020        1.94572190
      121.28904      120.17037918        1.94524456
      121.38874      114.73832670        1.79710969
      121.48843      116.26821552        1.70875585
      121.58812      118.10592091        1.64265708
      121.68782      117.83235393        1.81765910
      121.78751      119.00640683        1.74073295
      121.88720      120.94124000        1.73250773
      121.98690      120.59002483        1.74293102
      122.08659      116.44036716        1.74672426
      122.18628      115.76857576        2.02040204
      122.28598      114.18998871        1.88686228
      122.38567      117.37283920        1.83232907
      122.48536      116.08178693        1.72362423
      122.58506      114.13542268        1.61859965
      122.68475      111.66264211        1.81403051
      122.78444      113.57489264        1.72278897
      122.88414      109.88538951        1.67997342
      122.98383      107.03526398        1.69184732
      123.08352      103.59342233        1.64999190
      123.18322      101.42406701        1.90401171
      123.28291       98.01930463        1.70095955
      123.38260      101.28743512        1.66938814
      123.48230       98.92453728        1.58996711
      123.58199       98.85283846        1.48555721
      123.68168       98.04532657        1.68818895
      123.78138       90.77061389        1.46512473
      123.88107       89.94972451        1.42472193
      123.98076       87.82692265        1.43374549
      124.08046       87.59790156        1.41677705
      124.18015       86.69104118        1.59522237
      124.27984       87.30354948        1.43428591
      124.37954       84.57744321        1.33201189
      124.47923       82.99267340        1.28806848
      124.57893       75.79540929        1.31112000
