        5.04651       59.47216066        2.63098539
        5.14621       55.72687944        2.45415536
        5.24590       53.63406965        2.37293080
        5.34559       51.01416924        2.12235178
        5.44529       52.59584575        2.34457691
        5.54498       51.91342368        1.95932296
        5.64467       52.96609911        1.96186304
        5.74437       52.59773844        1.76475775
        5.84406       49.65249573        1.73502785
        5.94375       53.08331765        1.79178085
        6.04345       52.28601404        1.72787776
        6.14314       48.71669200        1.52691957
        6.24283       47.54509556        1.55817756
        6.34253       52.48490664        1.56174936
        6.44222       50.92354846        1.61973166
        6.54191       50.54895899        1.52877259
        6.64161       49.65635258        1.43537608
        6.74130       48.86145268        1.42955213
        6.84099       48.71048896        1.41700031
        6.94069       46.79513668        1.40968025
        7.04038       49.64264844        1.34037697
        7.14007       50.32019970        1.34672730
        7.23977       46.42092138        1.27070720
        7.33946       47.65276279        1.30722090
        7.43915       48.93871081        1.30751464
        7.53885       48.52380870        1.27791972
        7.63854       48.83513575        1.22533233
        7.73823       47.06421128        1.24897494
        7.83793       48.98485051        1.23314619
        7.93762       48.44893561        1.27926895
        8.03732       47.36733379        1.13436023
        8.13701       49.19281013        1.15086777
        8.23670       48.28482097        1.15624891
        8.33640       46.57258374        1.13580626
        8.43609       46.64888957        1.18841396
        8.53578       49.36904242        1.13886351
        8.63548       47.49391782        1.10411442
        8.73517       47.89679768        1.08767007
        8.83486       47.43842361        1.08507156
        8.93456       47.33422936        1.07830847
        9.03425       46.47641468        1.03717303
        9.13394       46.24312081        1.03650591
        9.23364       47.53108106        1.06623290
        9.33333       47.47903711        1.08734376
        9.43302       48.08696890        1.09471352
        9.53272       48.12070715        1.05810023
        9.63241       48.24807088        1.08945150
        9.73210       45.51408707        1.05591178
        9.83180       46.87049135        1.11658030
        9.93149       48.13461741        1.12348799
       10.03118       47.21089833        1.07055258
       10.13088       47.73092299        1.05065819
       10.23057       46.43330278        1.08514466
       10.33026       46.78456060        1.12592906
       10.42996       46.94000380        1.11235164
       10.52965       48.42351866        1.09420816
       10.62934       47.62646270        1.08774205
       10.72904       48.54686104        1.11448007
       10.82873       47.62629678        1.09826474
       10.92842       49.64312533        1.14015340
       11.02812       47.21888363        1.05929198
       11.12781       47.82009352        1.10427559
       11.22750       51.06658793        1.15264535
       11.32720       51.45408690        1.18814725
       11.42689       50.50930173        1.13630841
       11.52658       52.34581472        1.14306961
       11.62628       50.90037764        1.13934954
       11.72597       56.15215872        1.22232784
       11.82567       58.82751734        1.28601967
       11.92536       61.59608108        1.23159553
       12.02505       66.09211944        1.28189490
       12.12475       72.03873878        1.33738415
       12.22444       77.81960139        1.47421330
       12.32413       88.43577802        1.59603321
       12.42383      100.32945376        1.61408777
       12.52352      113.81875013        1.70910002
       12.62321      134.07997697        1.90855052
       12.72291      157.60368121        2.01452176
       12.82260      182.52541503        2.35774192
       12.92229      200.78987599        2.24640633
       13.02199      229.02441462        2.38119370
       13.12168      255.83338195        2.56117268
       13.22137      287.85791838        2.80597025
       13.32107      305.58587570        2.98386676
       13.42076      339.23125989        3.02766023
       13.52045      361.94802176        3.16576498
       13.62015      362.62356026        3.07054378
       13.71984      342.70987210        3.10983515
       13.81953      317.56871899        3.04385656
       13.91923      276.22108635        2.66550760
       14.01892      225.77996123        2.34565440
       14.11861      171.70822380        2.13314329
       14.21831      132.66539105        1.87613329
       14.31800      107.62183636        1.77861094
       14.41769       82.25281483        1.49687278
       14.51739       70.13677069        1.34836705
       14.61708       60.61096914        1.25641465
       14.71677       55.08529085        1.21719648
       14.81647       52.64748228        1.24651444
       14.91616       49.89049694        1.11580860
       15.01585       50.09725283        1.13829077
       15.11555       49.42875950        1.14374979
       15.21524       49.64952861        1.18144859
       15.31493       46.27196202        1.16792048
       15.41463       48.35058462        1.15601686
       15.51432       46.94388661        1.10372767
       15.61402       47.51328549        1.13854196
       15.71371       46.64299572        1.12028367
       15.81340       46.61570681        1.16508101
       15.91310       50.26358640        1.17566944
       16.01279       46.81013880        1.08620037
       16.11248       47.61354709        1.12493173
       16.21218       47.83771510        1.15883353
       16.31187       43.58400877        1.10865133
       16.41156       48.77661372        1.15120744
       16.51126       48.18437917        1.16351955
       16.61095       50.24569601        1.14572785
       16.71064       46.65340239        1.13877216
       16.81034       51.83448145        1.20419293
       16.91003       50.35189331        1.15255850
       17.00972       55.27545142        1.15948505
       17.10942       56.78825474        1.24222346
       17.20911       60.72930142        1.29611333
       17.30880       67.98375825        1.38357857
       17.40850       69.42646171        1.39789324
       17.50819       74.94468752        1.41052064
       17.60788       73.52146767        1.44035566
       17.70758       74.64235445        1.45732967
       17.80727       74.40404473        1.47295318
       17.90696       69.40895734        1.32991948
       18.00666       66.92535501        1.32873255
       18.10635       62.08686227        1.24463395
       18.20604       61.12034848        1.35469433
       18.30574       58.15232189        1.25925316
       18.40543       55.52652126        1.19994368
       18.50512       54.45678809        1.22578875
       18.60482       51.72767699        1.17582910
       18.70451       52.39150296        1.25054649
       18.80420       49.32458269        1.13977312
       18.90390       50.58524253        1.14197562
       19.00359       50.35077773        1.10953489
       19.10328       46.93438457        1.13321446
       19.20298       47.56448489        1.17631945
       19.30267       47.02605979        1.12321015
       19.40237       45.91655908        1.09727671
       19.50206       46.50737613        1.13210167
       19.60175       45.70737986        1.10970652
       19.70145       44.46298999        1.14763073
       19.80114       45.17943315        1.09722083
       19.90083       46.36183581        1.07396874
       20.00053       44.20213785        1.06718157
       20.10022       46.05493604        1.09748033
       20.19991       47.83737384        1.19589347
       20.29961       47.85656886        1.13334348
       20.39930       50.47829661        1.19924675
       20.49899       49.38662924        1.16555542
       20.59869       49.99597309        1.19419117
       20.69838       53.70329460        1.28348360
       20.79807       55.07006316        1.23972621
       20.89777       52.60851477        1.18418738
       20.99746       55.84116650        1.23229843
       21.09715       55.85110075        1.29811909
       21.19685       57.63747393        1.31192473
       21.29654       59.14577580        1.29648086
       21.39623       57.18332051        1.27476961
       21.49593       53.86202892        1.21937003
       21.59562       53.12794801        1.24016212
       21.69531       51.96668701        1.27570502
       21.79501       50.24457161        1.14744669
       21.89470       46.67341367        1.08089664
       21.99439       44.87661653        1.10475357
       22.09409       46.62192868        1.12889097
       22.19378       45.98218137        1.19059108
       22.29347       43.40776793        1.07726482
       22.39317       46.22836613        1.14062693
       22.49286       47.28666666        1.15273005
       22.59255       45.87017897        1.14862575
       22.69225       49.64624817        1.25942706
       22.79194       49.56170576        1.13011595
       22.89163       54.19909813        1.15888770
       22.99133       56.35198491        1.21454133
       23.09102       60.65809586        1.30885697
       23.19072       62.33568569        1.33004085
       23.29041       65.59896715        1.34757721
       23.39010       68.95138675        1.39622021
       23.48980       67.67124005        1.38815775
       23.58949       65.22234121        1.38096526
       23.68918       60.82220110        1.40211647
       23.78888       58.24587072        1.22270356
       23.88857       52.66933060        1.17768330
       23.98826       49.54528628        1.16760843
       24.08796       45.92206948        1.10206217
       24.18765       47.04234466        1.19523172
       24.28734       46.65461400        1.13326281
       24.38704       44.23126564        1.12178475
       24.48673       43.92518166        1.11388680
       24.58642       43.33443960        1.14295517
       24.68612       43.41645068        1.14252791
       24.78581       44.22380912        1.06299472
       24.88550       44.82916775        1.06983190
       24.98520       45.82882441        1.12174587
       25.08489       46.60371873        1.15380769
       25.18458       45.62282621        1.16554119
       25.28428       44.79213821        1.11306632
       25.38397       47.70071075        1.14317389
       25.48366       50.74970516        1.18632472
       25.58336       54.67766906        1.28363949
       25.68305       62.81021883        1.34970563
       25.78274       69.72647148        1.34241085
       25.88244       84.03877966        1.51150137
       25.98213      105.47037872        1.70796488
       26.08182      131.98202749        1.96183955
       26.18152      153.96101897        2.17091054
       26.28121      178.69033326        2.21320782
       26.38090      193.47266185        2.32288861
       26.48060      200.69392313        2.43162505
       26.58029      180.56487142        2.40491687
       26.67998      167.92780863        2.19032487
       26.77968      141.46852990        1.98565550
       26.87937      112.73283954        1.74629866
       26.97907       92.29301940        1.56635515
       27.07876       81.51092903        1.58470793
       27.17845       77.40569131        1.47565741
       27.27815       76.96736360        1.43696134
       27.37784       83.46083777        1.55496799
       27.47753       85.93842596        1.55468710
       27.57723       87.45684925        1.64302677
       27.67692       84.75633962        1.57864556
       27.77661       78.64087783        1.45113761
       27.87631       70.95080208        1.35520270
       27.97600       63.03246710        1.30587753
       28.07569       55.77015472        1.29979677
       28.17539       54.52224697        1.23031587
       28.27508       49.52031120        1.17284972
       28.37477       50.20379079        1.20905451
       28.47447       49.81071917        1.19488978
       28.57416       52.47034734        1.32598366
       28.67385       50.79598016        1.16065693
       28.77355       52.07422014        1.15400895
       28.87324       58.52759025        1.25628954
       28.97293       57.77193260        1.25102866
       29.07263       58.30661482        1.37000484
       29.17232       56.55260931        1.23122461
       29.27201       55.61315354        1.24347699
       29.37171       53.97637939        1.26014722
       29.47140       51.60647969        1.21785844
       29.57109       49.58209180        1.26575153
       29.67079       45.49658757        1.10367624
       29.77048       45.27174927        1.10349171
       29.87017       45.78916042        1.08801735
       29.96987       47.09164105        1.15698158
       30.06956       48.02809651        1.20548722
       30.16925       44.99759792        1.09852994
       30.26895       47.33638303        1.13111411
       30.36864       47.28112295        1.14892485
       30.46833       53.26585296        1.23208756
       30.56803       54.13682014        1.31212630
       30.66772       52.83134252        1.20615295
       30.76742       58.36752670        1.24262435
       30.86711       62.63099557        1.31304120
       30.96680       63.42342411        1.32898723
       31.06650       63.35606132        1.39277019
       31.16619       60.62593894        1.28089427
       31.26588       59.13662655        1.25740613
       31.36558       58.45856308        1.26652412
       31.46527       57.80952426        1.31046915
       31.56496       61.35072835        1.37185662
       31.66466       64.59762919        1.31659159
       31.76435       68.74492999        1.35694540
       31.86404       79.11109477        1.43696788
       31.96374       84.12997534        1.51640881
       32.06343       84.68648629        1.57443060
       32.16312       85.76781252        1.48911115
       32.26282       83.89405226        1.50870337
       32.36251       79.89627099        1.53109803
       32.46220       71.34490523        1.47242917
       32.56190       68.27054186        1.46580061
       32.66159       65.78584776        1.36633550
       32.76128       64.98274152        1.32747654
       32.86098       61.89484131        1.31486981
       32.96067       59.95879709        1.31026832
       33.06036       59.77248633        1.33209464
       33.16006       56.56721691        1.22027358
       33.25975       56.21402215        1.25596186
       33.35944       56.99138868        1.27150451
       33.45914       56.79982075        1.31763909
       33.55883       57.92908639        1.33383868
       33.65852       59.75335134        1.26328916
       33.75822       65.50864068        1.32065218
       33.85791       73.85185335        1.40825335
       33.95760       82.94906747        1.53688228
       34.05730       88.37608854        1.57103341
       34.15699      101.50220469        1.65735063
       34.25668      119.98877337        1.79634850
       34.35638      148.97663984        2.05444348
       34.45607      181.92906986        2.39201745
       34.55577      231.99647773        2.57579929
       34.65546      299.15837239        2.80723802
       34.75515      363.69826357        3.15530867
       34.85485      424.77011256        3.38590153
       34.95454      443.88525617        3.57016060
       35.05423      432.65825246        3.64513683
       35.15393      385.08756465        3.22793516
       35.25362      313.30356678        2.95509579
       35.35331      244.69753462        2.67813798
       35.45301      185.55120726        2.43212369
       35.55270      140.08724476        2.05654547
       35.65239      109.25342623        1.75335774
       35.75209       89.87998569        1.57813313
       35.85178       77.45395304        1.46256791
       35.95147       71.81210096        1.44125018
       36.05117       68.61900623        1.37974531
       36.15086       66.91474288        1.31005100
       36.25055       64.68002690        1.34556775
       36.35025       62.85031970        1.35230586
       36.44994       57.48417786        1.31890240
       36.54963       58.90260665        1.28168589
       36.64933       57.62017373        1.24868682
       36.74902       55.03778516        1.23302631
       36.84871       51.79350340        1.18736873
       36.94841       51.28935108        1.27778093
       37.04810       49.94984920        1.11181859
       37.14779       51.04174192        1.14699561
       37.24749       50.24859475        1.16967385
       37.34718       50.04087207        1.19702084
       37.44687       49.11343067        1.27382430
       37.54657       48.73560967        1.15842099
       37.64626       47.00147722        1.13319337
       37.74595       48.65345953        1.13497518
       37.84565       46.29746942        1.17137203
       37.94534       47.06189629        1.20317496
       38.04503       47.41741413        1.09157409
       38.14473       47.96250825        1.10861013
       38.24442       46.67128571        1.11352171
       38.34412       48.01408298        1.18085592
       38.44381       48.87227195        1.28824939
       38.54350       47.44231890        1.13137888
       38.64320       50.45432228        1.16332754
       38.74289       52.19879902        1.19881724
       38.84258       54.94983911        1.23309592
       38.94228       54.03986101        1.28255926
       39.04197       59.53644164        1.21411255
       39.14166       63.52982187        1.30481858
       39.24136       70.29168627        1.36910425
       39.34105       70.39069969        1.41783127
       39.44074       74.26286880        1.58869741
       39.54044       72.09902146        1.39955288
       39.64013       70.62326933        1.38086141
       39.73982       66.20646315        1.34220716
       39.83952       63.63263400        1.30686490
       39.93921       62.65902110        1.37501821
       40.03890       57.92212119        1.20993602
       40.13860       58.74966966        1.21701232
       40.23829       56.48070851        1.23539757
       40.33798       57.89181426        1.28978781
       40.43768       56.96484316        1.33857810
       40.53737       56.87568682        1.24139631
       40.63706       55.65411211        1.25372167
       40.73676       56.17423281        1.25758884
       40.83645       59.27393545        1.30274540
       40.93614       61.57224403        1.35011248
       41.03584       66.12907133        1.31691691
       41.13553       76.89862838        1.42213078
       41.23522       92.33987394        1.59680309
       41.33492      115.24609402        1.86833136
       41.43461      135.59059134        2.09214387
       41.53430      160.77835598        2.13438551
       41.63400      189.01964342        2.36595072
       41.73369      205.55891060        2.41394280
       41.83338      214.88793000        2.53448923
       41.93308      214.43442960        2.50914305
       42.03277      225.77162275        2.35392008
       42.13247      244.51733150        2.57526041
       42.23216      292.83232925        2.82520626
       42.33185      355.05700586        3.34145612
       42.43155      421.52476112        3.58911620
       42.53124      482.75001571        3.72012918
       42.63093      522.51414842        3.87769680
       42.73063      543.11565580        3.97181151
       42.83032      528.49766885        3.98688370
       42.93001      495.86396155        3.71647253
       43.02971      424.70493977        3.24762120
       43.12940      338.12127609        2.95443375
       43.22909      254.91696609        2.69400184
       43.32879      196.34214761        2.48940953
       43.42848      148.62006298        2.11700015
       43.52817      110.88035716        1.74850361
       43.62787       86.69373755        1.54029935
       43.72756       73.50795247        1.45154565
       43.82725       67.53807671        1.45268683
       43.92695       63.16303154        1.27381178
       44.02664       61.12894737        1.24708896
       44.12633       56.96808076        1.24860554
       44.22603       58.12869687        1.31285644
       44.32572       57.34481305        1.37430141
       44.42541       55.54894017        1.29132640
       44.52511       53.27494308        1.23050549
       44.62480       55.23296266        1.27071263
       44.72449       58.43025233        1.26670061
       44.82419       61.37371973        1.45686227
       44.92388       66.85341476        1.26831015
       45.02357       75.93739204        1.36311355
       45.12327       86.92962138        1.50253067
       45.22296      104.40993487        1.69061831
       45.32265      130.36866162        2.09086657
       45.42235      145.37681902        2.01053733
       45.52204      175.34002003        2.18692272
       45.62174      206.36627791        2.41693037
       45.72143      227.88522684        2.54051792
       45.82112      236.03764761        2.83057693
       45.92082      237.25665560        2.40921216
       46.02051      237.62644956        2.46270190
       46.12020      232.44413520        2.44356596
       46.21990      214.89307101        2.46805987
       46.31959      197.90096308        2.55696952
       46.41928      178.41790456        2.24179633
       46.51898      146.99678372        2.04487823
       46.61867      118.89756622        1.82879563
       46.71836       97.61212636        1.69889340
       46.81806       82.50829074        1.61907254
       46.91775       69.80680557        1.29771105
       47.01744       63.95801579        1.27158302
       47.11714       64.04488605        1.30151012
       47.21683       71.24767786        1.41346258
       47.31652       74.97243742        1.58188269
       47.41622       89.25171787        1.62709109
       47.51591      102.12847332        1.74409146
       47.61560      119.08903757        1.86813864
       47.71530      132.62196759        1.99299902
       47.81499      146.53715863        2.14806895
       47.91468      159.81084378        1.96276250
       48.01438      172.34725680        2.03969153
       48.11407      177.31999592        2.14649479
       48.21376      179.48230337        2.25489716
       48.31346      166.79823716        2.25042163
       48.41315      155.56487760        2.02539158
       48.51284      144.04699148        2.01359850
       48.61254      122.20774837        1.84634016
       48.71223      104.26797365        1.73583563
       48.81192       87.24054728        1.58345934
       48.91162       74.00639471        1.30703268
       49.01131       62.96611653        1.24754031
       49.11100       57.49747002        1.23492152
       49.21070       53.92834794        1.25550684
       49.31039       52.03216299        1.26915207
       49.41009       52.11721264        1.19993960
       49.50978       49.88466807        1.19815579
       49.60947       50.10078283        1.20954735
       49.70917       49.35907664        1.24504495
       49.80886       49.50529955        1.21353689
       49.90855       50.13698044        1.11250929
       50.00825       51.80576403        1.15482614
       50.10794       48.16242893        1.13867320
       50.20763       52.60146066        1.24345991
       50.30733       51.41199105        1.28764448
       50.40702       55.98717194        1.26029614
       50.50671       56.48171368        1.26958957
       50.60641       58.42092687        1.29311756
       50.70610       57.35441983        1.31831965
       50.80579       57.68829678        1.30471908
       50.90549       56.36588725        1.16269990
       51.00518       56.33061467        1.17263976
       51.10487       55.24430442        1.20035729
       51.20457       56.92595812        1.29726862
       51.30426       53.94896121        1.25619124
       51.40395       59.67121165        1.26678823
       51.50365       58.10079457        1.26421416
       51.60334       60.94580275        1.32049978
       51.70303       58.07121546        1.36868831
       51.80273       60.16714719        1.27800665
       51.90242       61.16918310        1.20399851
       52.00211       61.65492516        1.21450649
       52.10181       62.07860715        1.25726228
       52.20150       65.03482740        1.41732022
       52.30119       62.46231832        1.33790675
       52.40089       65.15355222        1.34515612
       52.50058       59.74331671        1.31218079
       52.60027       60.59526484        1.33959354
       52.69997       60.11908429        1.46227024
       52.79966       58.76015894        1.21534421
       52.89935       65.25426924        1.23604704
       52.99905       73.96445998        1.33780828
       53.09874       84.47220514        1.47616390
       53.19844       96.09817784        1.80346011
       53.29813      107.19170887        1.69303830
       53.39782      123.61494790        1.88152153
       53.49752      133.16960889        1.96204749
       53.59721      142.03743059        2.02509770
       53.69690      147.55967583        2.26504909
       53.79660      152.68191975        1.93028799
       53.89629      154.45279038        1.92063234
       53.99598      145.56680835        1.90966430
       54.09568      135.51098306        1.92364877
       54.19537      124.15311298        2.00759050
       54.29506      114.52396947        1.77103504
       54.39476      104.02279665        1.70055508
       54.49445       95.67074345        1.63169105
       54.59414       90.88241465        1.61437418
       54.69384       88.86561712        1.70293107
       54.79353       85.77698659        1.43459452
       54.89322       81.95110932        1.39702723
       54.99292       80.10795925        1.42161541
       55.09261       74.37082774        1.42422807
       55.19230       70.48295229        1.48878726
       55.29200       66.74851743        1.34833207
       55.39169       63.03128065        1.35180708
       55.49138       57.01842178        1.28069687
       55.59108       56.82864255        1.31957292
       55.69077       56.45220907        1.34973058
       55.79046       54.45762635        1.15892823
       55.89016       56.08162759        1.17333893
       55.98985       55.79932925        1.17787269
       56.08954       59.82378465        1.25997473
       56.18924       63.67478678        1.40302307
       56.28893       74.14639810        1.38609629
       56.38862       81.09747362        1.49969642
       56.48832       93.71450940        1.64040323
       56.58801      103.61907205        1.77518962
       56.68770      110.71047804        1.89413832
       56.78740      116.58040693        1.66375506
       56.88709      112.80621742        1.65272320
       56.98679      105.46378119        1.59914400
       57.08648       97.40088341        1.62881098
       57.18617       88.72243872        1.60932976
       57.28587       75.22651809        1.38405248
       57.38556       67.07247078        1.39092525
       57.48525       60.22968440        1.34314725
       57.58495       57.87526683        1.34674594
       57.68464       54.46585872        1.31773707
       57.78433       52.45162956        1.13116897
       57.88403       49.19784345        1.10816684
       57.98372       52.67864828        1.16510147
       58.08341       53.94203169        1.27481844
       58.18311       52.98253631        1.29236203
       58.28280       53.36267317        1.22163685
       58.38249       54.49771170        1.29005137
       58.48219       52.80296442        1.29717695
       58.58188       52.73293902        1.31049034
       58.68157       51.44698422        1.26835700
       58.78127       52.67805529        1.12267920
       58.88096       54.34357613        1.12353010
       58.98065       56.34710702        1.18769926
       59.08035       55.52428500        1.25801061
       59.18004       56.77035836        1.29042646
       59.27973       61.74925386        1.26998101
       59.37943       63.36951168        1.32900488
       59.47912       66.80062792        1.42058627
       59.57881       73.57449866        1.56214932
       59.67851       76.02476979        1.48052830
       59.77820       83.58123763        1.42735426
       59.87789       92.43414319        1.49605358
       59.97759      102.06364525        1.64490964
       60.07728       98.70430965        1.75143280
       60.17697      106.32563866        1.73209395
       60.27667      104.43818795        1.66886553
       60.37636      111.05119214        1.75467871
       60.47605      104.69757454        1.77703719
       60.57575      101.05637410        1.91319729
       60.67544       94.68006889        1.59071290
       60.77514       87.19802597        1.45099648
       60.87483       76.99420654        1.33662388
       60.97452       72.86405540        1.36970818
       61.07422       70.14244276        1.50958650
       61.17391       65.93159402        1.26761819
       61.27360       67.64166962        1.32962569
       61.37330       68.07075101        1.38332509
       61.47299       71.68632569        1.48216395
       61.57268       70.57130655        1.67225868
       61.67238       71.54181801        1.37231430
       61.77207       72.85878096        1.34884118
       61.87176       72.76267129        1.33292836
       61.97146       70.90943053        1.36603865
       62.07115       67.47380326        1.50900314
       62.17084       66.06810187        1.30816507
       62.27054       65.96963220        1.36298333
       62.37023       66.06439821        1.41830361
       62.46992       65.77077920        1.46363584
       62.56962       63.84340192        1.61950629
       62.66931       69.45877179        1.36109626
       62.76900       76.77844946        1.39512262
       62.86870       80.30296430        1.39577029
       62.96839       90.73618840        1.53148163
       63.06808      100.38300094        1.79312860
       63.16778      107.41570648        1.64684125
       63.26747      110.46100338        1.72825779
       63.36716      117.14264193        1.84730984
       63.46686      122.65586041        1.94724323
       63.56655      127.75740299        2.11154520
       63.66624      139.07348105        1.87310848
       63.76594      151.48235057        1.89953066
       63.86563      163.39662959        1.96730440
       63.96532      169.81550795        2.09892547
       64.06502      176.09668219        2.29022246
       64.16471      174.16094805        2.10662881
       64.26440      162.80813519        2.11973213
       64.36410      147.06845462        2.05455590
       64.46379      132.34740118        2.06051186
       64.56349      119.51368907        1.99232132
       64.66318      100.18019597        1.59572814
       64.76287       85.58875425        1.45624555
       64.86257       72.72622019        1.33987220
       64.96226       63.77705951        1.31395753
       65.06195       57.28219864        1.34624802
       65.16165       55.50739677        1.19540559
       65.26134       53.46630446        1.20060631
       65.36103       54.79098992        1.26829209
       65.46073       55.51604917        1.31863542
       65.56042       56.27755651        1.38668459
       65.66011       54.49731465        1.18977784
       65.75981       58.31949248        1.21864385
       65.85950       59.60264475        1.22416492
       65.95919       60.46689173        1.29072848
       66.05889       64.57506696        1.37985072
       66.15858       71.19085469        1.37797935
       66.25827       74.87217692        1.46155316
       66.35797       88.87992994        1.65950389
       66.45766      100.07563239        1.87149910
       66.55735      110.70316537        1.96823879
       66.65705      126.51933230        1.86712443
       66.75674      143.30588730        1.93711520
       66.85643      153.42910350        1.98190265
       66.95613      163.20994475        2.12579159
       67.05582      167.60823692        2.17060151
       67.15551      173.58661956        2.10253042
       67.25521      163.13756856        2.13881181
       67.35490      150.05259961        2.15880374
       67.45459      134.18719263        2.15231234
       67.55429      122.23639479        1.96784461
       67.65398      104.33565941        1.62903426
       67.75367       88.29027544        1.48574873
       67.85337       80.32500037        1.43434631
       67.95306       77.52173719        1.50667433
       68.05275       75.01813705        1.40330681
       68.15245       79.46777634        1.43204872
       68.25214       88.60915907        1.60538147
       68.35184       95.48929840        1.73708499
       68.45153      100.69008350        1.96384826
       68.55122      104.73867399        1.72554331
       68.65092      116.70427860        1.69825604
       68.75061      126.54601429        1.78712427
       68.85030      127.69715566        1.82980602
       68.95000      129.27502833        2.08747192
       69.04969      123.46681466        1.72258227
       69.14938      112.22649943        1.68828109
       69.24908      103.09510900        1.72775919
       69.34877       90.35192283        1.67236604
       69.44846       84.06883810        1.87094657
       69.54816       73.20422287        1.36083579
       69.64785       66.47180781        1.27831244
       69.74754       60.21501753        1.22870173
       69.84724       54.00550042        1.19374553
       69.94693       53.36845644        1.33923513
       70.04662       48.27093232        1.04721384
       70.14632       50.42198674        1.11304399
       70.24601       45.47889303        1.13165172
       70.34570       46.48301898        1.21069531
       70.44540       47.03072271        1.43489233
       70.54509       47.30656338        1.12643879
       70.64478       51.56489298        1.17454858
       70.74448       47.00181041        1.13896690
       70.84417       49.97960059        1.21887929
       70.94386       48.95529444        1.32415828
       71.04356       51.88894970        1.12820741
       71.14325       51.95133072        1.17311421
       71.24294       56.76126746        1.29039837
       71.34264       53.21963643        1.32472671
       71.44233       54.68862225        1.49859222
       71.54202       54.19886894        1.21454538
       71.64172       55.06221781        1.19085412
       71.74141       53.26297971        1.14990954
       71.84110       51.44029465        1.16971804
       71.94080       50.86500433        1.26745444
       72.04049       51.39649943        1.07838539
       72.14019       50.58209707        1.11460519
       72.23988       52.27901913        1.18569547
       72.33957       50.23991611        1.29825002
       72.43927       52.45333954        1.46036909
       72.53896       54.54251168        1.19407865
       72.63865       52.82936170        1.14861231
       72.73835       57.03353232        1.16736598
       72.83804       58.12049506        1.24443420
       72.93773       59.72411725        1.34004986
       73.03743       61.23532620        1.17786345
       73.13712       62.15446663        1.25147372
       73.23681       64.32092888        1.33760590
       73.33651       62.36265712        1.44915962
       73.43620       62.14660142        1.56691221
       73.53589       67.02468722        1.31290778
       73.63559       64.09229034        1.26357517
       73.73528       64.66686472        1.26348508
       73.83497       66.49033438        1.35834365
       73.93467       63.62729553        1.39906521
       74.03436       65.15049370        1.25296842
       74.13405       63.94330185        1.29402566
       74.23375       58.99600817        1.29449459
       74.33344       59.05658041        1.42579526
       74.43313       64.40726394        1.54535357
       74.53283       63.20302224        1.30060494
       74.63252       64.88628853        1.30833581
       74.73221       68.52435790        1.33810384
       74.83191       69.47936807        1.42934448
       74.93160       78.26246566        1.53454296
       75.03129       81.81839372        1.39503890
       75.13099       84.33378917        1.46709721
       75.23068       90.94947393        1.58946426
       75.33037       99.54410963        1.82828318
       75.43007      103.05724022        1.88722004
       75.52976      111.40418903        1.70465658
       75.62945      121.28147369        1.77750844
       75.72915      130.17400975        1.83463037
       75.82884      133.02485794        1.99685616
       75.92854      136.93674902        1.90206773
       76.02823      146.40469413        1.84503500
       76.12792      151.92525577        1.96476847
       76.22762      152.95026918        2.07996410
       76.32731      150.12310962        2.32703044
       76.42700      150.25464870        2.19727409
       76.52670      144.39939222        1.98682058
       76.62639      139.24629130        1.92610946
       76.72608      127.58602697        1.81246660
       76.82578      122.08132077        2.04258729
       76.92547      119.97444731        1.62180195
       77.02516      120.56609711        1.68510673
       77.12486      122.20038689        1.78222015
       77.22455      126.69856684        1.93253888
       77.32424      130.55884120        2.41033937
       77.42394      135.91392584        1.96398442
       77.52363      137.01145304        1.90553750
       77.62332      142.07062105        1.93180707
       77.72302      143.55989631        1.94633565
       77.82271      142.76506188        2.27612497
       77.92240      147.61415354        1.77255603
       78.02210      149.83576490        1.92714583
       78.12179      143.77231992        2.01581373
       78.22148      139.93520898        2.10278747
       78.32118      136.75695695        2.41191740
       78.42087      131.10935990        1.85832521
       78.52056      120.73552031        1.84098526
       78.62026      114.70995442        1.78009987
       78.71995      106.68190462        1.72204986
       78.81964       97.64126988        1.83970905
       78.91934       90.29951003        1.37060011
       79.01903       81.81325007        1.42995707
       79.11872       73.96869679        1.41469417
       79.21842       68.14190370        1.44823236
       79.31811       66.07701233        1.60631099
       79.41780       63.65472594        1.27883589
       79.51750       63.86051358        1.30154560
       79.61719       65.05890817        1.31762256
       79.71689       65.07729457        1.36819812
       79.81658       65.37218779        1.45364990
       79.91627       64.84541604        1.22719051
       80.01597       64.69376942        1.25989069
       80.11566       64.55915256        1.31566590
       80.21535       62.18806671        1.38020136
       80.31505       66.51630618        1.69712225
       80.41474       64.68701008        1.28595503
       80.51443       68.73729000        1.31998351
       80.61413       70.85506707        1.38470263
       80.71382       77.87088321        1.50201778
       80.81351       80.58909209        1.71711481
       80.91321       91.67751613        1.35099935
       81.01290      105.60835140        1.56589228
       81.11259      123.49047800        1.82842542
       81.21229      141.24047905        2.11588950
       81.31198      157.22453338        2.49109058
       81.41167      170.79426084        2.03322991
       81.51137      194.08556230        2.23077710
       81.61106      214.22352723        2.44818544
       81.71075      230.70506295        2.63034222
       81.81045      235.16702946        2.81332876
       81.91014      260.04783347        2.27611638
       82.00983      268.28491482        2.47112417
       82.10953      287.31460828        2.86214585
       82.20922      288.82609310        3.19125470
       82.30891      296.36321034        3.39026599
       82.40861      298.14735208        2.76533826
       82.50830      295.03594573        2.74346431
       82.60799      294.73150554        2.95374138
       82.70769      287.98607367        3.17673547
       82.80738      291.84697300        3.05596315
       82.90707      282.34626274        2.44015570
       83.00677      276.49940641        2.57277856
       83.10646      264.86135007        2.96217725
       83.20615      254.93307120        3.23427347
       83.30585      241.03260203        2.97844926
       83.40554      222.97881089        2.38092095
       83.50524      203.74135929        2.21998118
       83.60493      179.48600147        2.29425896
       83.70462      163.78365541        2.47058675
       83.80432      154.82697921        2.09907791
       83.90401      131.95991235        1.62479963
       84.00370      112.74691174        1.56582437
       84.10340       94.76181904        1.71464314
       84.20309       85.55240655        1.97745970
       84.30278       81.62114967        1.57073836
       84.40248       73.79035941        1.31781832
       84.50217       65.62314344        1.21887415
       84.60186       68.99602030        1.41339799
       84.70156       66.48790679        1.81546907
       84.80125       62.21389216        1.22247805
       84.90094       65.08220494        1.12331728
       85.00064       64.36359773        1.15091581
       85.10033       64.92114736        1.36799396
       85.20002       64.01509378        2.32974379
       85.29972       66.48787787        1.25257451
       85.39941       67.92654711        1.29086552
       85.49910       66.66306241        1.24354798
       85.59880       67.48655731        1.40697614
       85.69849       67.80926293        2.53207074
       85.79818       67.60100258        1.19193788
       85.89788       66.84564516        1.15690967
       85.99757       64.53863846        1.16793975
       86.09726       63.32716789        1.32826531
       86.19696       61.92821378        2.52267533
       86.29665       62.04001953        1.19488284
       86.39634       62.68285447        1.22192931
       86.49604       61.42596135        1.19127051
       86.59573       58.27574960        1.23616986
       86.69542       57.95577681        2.57744635
       86.79512       54.76014652        1.03988919
       86.89481       54.59679344        1.02369920
       86.99451       55.28089745        1.06776119
       87.09420       56.12955677        1.19998578
       87.19389       52.64239053        2.75245025
       87.29359       51.53842827        1.10369267
       87.39328       53.58203093        1.14064817
       87.49297       50.22226184        1.07190460
       87.59267       47.94971786        1.06788246
       87.69236       50.91189582        3.29298308
       87.79205       49.26788708        1.00904783
       87.89175       51.30295778        1.02146035
       87.99144       51.05352869        1.06177595
       88.09113       49.17239941        1.10748062
       88.19083       50.18914045        5.92098015
       88.29052       50.04856391        1.12437901
       88.39021       48.45133343        1.11360346
       88.48991       47.91787634        1.06282451
       88.58960       49.37294336        1.04481739
       88.68929       61.46256028        9.03443334
       88.78899       48.76381299        1.00223211
       88.88868       50.04605443        0.99319322
       88.98837       51.31584822        1.04608255
       89.08807       51.68025769        1.07528693
       89.18776       50.85498866        8.67874359
       89.28745       51.25687068        1.08800240
       89.38715       52.57699694        1.11329421
       89.48684       53.50542958        1.09908606
       89.58653       57.25897062        1.11403100
       89.68623       48.43813548        8.30393276
       89.78592       59.24532144        1.10117047
       89.88561       61.55529243        1.10048435
       89.98531       63.80231575        1.14892618
       90.08500       69.20628880        1.24125781
       90.18469       84.91431571       11.47336252
       90.28439       75.03932955        1.32029559
       90.38408       80.99976300        1.39501652
       90.48377       84.42212587        1.39757350
       90.58347       89.58124469        1.41723480
       90.68316       93.31528105       11.26873350
       90.78286       92.67541234        1.37998537
       90.88255       92.04743076        1.33818001
       90.98224       96.92381017        1.42096160
       91.08194      102.26286052        1.50774165
       91.18163      106.84390973       12.29983758
       91.28132       98.68060331        1.52474242
       91.38102       98.48313157        1.56362932
       91.48071       95.81440179        1.50431299
       91.58040       90.37860825        1.41272277
       91.68010       86.87388090       10.47715577
       91.77979       89.48601995        1.34941172
       91.87948       82.60806880        1.27619143
       91.97918       79.48507704        1.29977551
       92.07887       76.34881815        1.32682989
       92.17856       80.50699462       10.36100100
       92.27826       77.33347144        1.37920252
       92.37795       73.52237143        1.37650602
       92.47764       75.30126745        1.32251427
       92.57734       77.23810993        1.29945834
       92.67703       89.41604627        9.07964294
       92.77672       80.12697425        1.27574972
       92.87642       83.29355259        1.27601655
       92.97611       88.49908262        1.37367035
       93.07580       89.98968589        1.58102418
       93.17550       91.88996455        3.00437472
       93.27519       94.77994946        1.49579975
       93.37488       94.32095224        1.45047461
       93.47458      100.19449315        1.51170243
       93.57427      101.30749447        1.75746524
       93.67396      101.08843219        2.37247714
       93.77366      101.04990438        1.46942560
       93.87335       99.13501006        1.39013283
       93.97304       95.86386019        1.42443255
       94.07274       91.18354257        1.80333196
       94.17243       91.85256464        2.06522098
       94.27212       89.58885615        1.51901626
       94.37182       88.46697268        1.47107491
       94.47151       87.95107932        1.40467575
       94.57121       84.13939359        1.81298210
       94.67090       87.19913829        1.86722822
       94.77059       84.99332595        1.43294321
       94.87029       77.07511440        1.24050686
       94.96998       71.63792514        1.21087591
       95.06967       67.00986136        1.34982202
       95.16937       68.00648656        1.86153320
       95.26906       64.90978591        1.40480750
       95.36875       65.36822857        1.27923556
       95.46845       61.47206058        1.19203868
       95.56814       59.32058702        1.34735242
       95.66783       61.63254854        1.54303030
       95.76753       56.33343694        1.21883126
       95.86722       53.38188614        1.00912978
       95.96691       54.38025016        1.05650212
       96.06661       52.84940991        1.33414376
       96.16630       52.28840595        1.41512896
       96.26599       53.34601085        1.28371399
       96.36569       52.05663566        1.13779309
       96.46538       49.84946581        1.07445653
       96.56507       48.11698943        1.30283186
       96.66477       47.26192176        1.25814799
       96.76446       47.79509897        1.13064946
       96.86415       48.53925640        0.98698262
       96.96385       46.57833968        0.99852645
       97.06354       48.13327441        1.37263959
       97.16323       49.61861665        1.33262700
       97.26293       49.85182145        1.25495166
       97.36262       49.93915781        1.16314629
       97.46231       48.58104435        1.05537284
       97.56201       49.72589301        1.35847379
       97.66170       50.12774374        1.22510123
       97.76139       53.21998563        1.14692969
       97.86109       52.78949542        1.03289135
       97.96078       56.30047782        1.09012247
       98.06047       55.10481623        1.49793204
       98.16017       54.89696909        1.32908263
       98.25986       56.32110121        1.28593605
       98.35956       58.07533783        1.23287712
       98.45925       60.18061763        1.17152190
       98.55894       60.60636793        1.53361841
       98.65864       65.14404945        1.36445243
       98.75833       66.09832293        1.28424324
       98.85802       70.91448016        1.24224672
       98.95772       71.53664223        1.23938283
       99.05741       72.78666400        1.73561032
       99.15710       72.53602400        1.49003418
       99.25680       75.42934364        1.47221613
       99.35649       79.22276288        1.43718926
       99.45618       82.32737588        1.36546897
       99.55588       84.70949641        1.85087900
       99.65557       83.78008756        1.51850325
       99.75526       85.07357303        1.43425337
       99.85496       89.03320110        1.39669106
       99.95465       87.39129675        1.35652493
      100.05434       83.45757039        1.88822239
      100.15404       88.05193916        1.63389153
      100.25373       85.89511268        1.59430933
      100.35342       87.93531678        1.60694274
      100.45312       85.94447004        1.44954226
      100.55281       84.19135380        1.88420849
      100.65250       85.61249440        1.54796870
      100.75220       79.02098911        1.37723413
      100.85189       76.35946800        1.29347838
      100.95158       80.75530419        1.29484874
      101.05128       80.81485869        1.84675085
      101.15097       78.69345230        1.50602036
      101.25066       78.82021496        1.48917014
      101.35036       77.68831872        1.49119603
      101.45005       76.35628238        1.39012814
      101.54974       75.27404607        1.71907185
      101.64944       76.29362765        1.41206583
      101.74913       73.88217446        1.30916477
      101.84882       78.20076152        1.31128216
      101.94852       78.87779360        1.38725936
      102.04821       78.15616743        1.66320791
      102.14791       79.62528014        1.51303235
      102.24760       81.06950599        1.51387625
      102.34729       80.74560619        1.50466600
      102.44699       81.39293103        1.53698547
      102.54668       83.56442875        1.63428664
      102.64637       85.63445555        1.47769366
      102.74607       84.19868303        1.39539028
      102.84576       87.88956915        1.39875630
      102.94545       87.79130448        1.59221737
      103.04515       84.85821010        1.65699575
      103.14484       83.61737396        1.53671266
      103.24453       85.25710893        1.52785534
      103.34423       86.05416787        1.52259777
      103.44392       85.10025546        1.64010054
      103.54361       85.34432389        1.59556794
      103.64331       87.36707809        1.46960688
      103.74300       87.70874233        1.40456237
      103.84269       87.06806654        1.37516736
      103.94239       83.47825394        1.61793551
      104.04208       84.13174447        1.57140168
      104.14177       82.01443926        1.50936091
      104.24147       81.94529138        1.50795348
      104.34116       82.05957825        1.51837929
      104.44085       80.15489023        1.70426490
      104.54055       82.91669466        1.56953570
      104.64024       79.66260082        1.44594941
      104.73993       76.95553182        1.35604137
      104.83963       73.25373185        1.27448423
      104.93932       72.54703196        1.53754192
      105.03901       69.62141517        1.41908701
      105.13871       72.62454930        1.39571502
      105.23840       69.37574136        1.36320065
      105.33809       71.77356825        1.39486123
      105.43779       70.33455354        1.60654416
      105.53748       68.03516016        1.41687263
      105.63717       63.68385526        1.25632033
      105.73687       63.10396109        1.19013997
      105.83656       60.52533653        1.13565470
      105.93626       60.46190250        1.43839990
      106.03595       58.67547233        1.28417642
      106.13564       55.60879355        1.20817716
      106.23534       56.75204966        1.23561296
      106.33503       54.20160814        1.21961897
      106.43472       50.78584573        1.39552812
      106.53442       53.53381763        1.24636474
      106.63411       51.60081457        1.11149482
      106.73380       51.70275254        1.06040899
      106.83350       54.59676675        1.07352340
      106.93319       53.73766719        1.38059335
      107.03288       56.26587153        1.25216364
      107.13258       56.39916332        1.21684289
      107.23227       54.66588297        1.21531127
      107.33196       53.64727504        1.20058783
      107.43166       58.08160925        1.50122771
      107.53135       56.79775803        1.28080419
      107.63104       59.17029297        1.19045933
      107.73074       60.76798485        1.15752174
      107.83043       61.32673885        1.14815490
      107.93012       62.60273560        1.53464565
      108.02982       63.62494723        1.35418349
      108.12951       62.31784066        1.27441779
      108.22920       63.67744143        1.26764910
      108.32890       62.64037454        1.24525178
      108.42859       66.22468173        1.62520987
      108.52828       68.26647135        1.39977244
      108.62798       67.72514937        1.26418577
      108.72767       71.06377795        1.24310318
      108.82736       71.02237128        1.27012154
      108.92706       65.81500655        1.54822240
      109.02675       67.61209541        1.37288880
      109.12644       65.99360385        1.32374787
      109.22614       65.22211728        1.31698744
      109.32583       66.60291502        1.45028876
      109.42552       67.89772643        1.54465207
      109.52522       67.74669438        1.39202152
      109.62491       63.74573037        1.28417412
      109.72461       62.57419719        1.21635922
      109.82430       63.99121211        1.14909029
      109.92399       58.13895507        1.42378252
      110.02369       60.26888524        1.26954540
      110.12338       60.27265050        1.26131286
      110.22307       60.16881902        1.25079001
      110.32277       59.80806324        1.27340862
      110.42246       59.55899259        1.54507858
      110.52215       57.28114239        1.28325517
      110.62185       55.69435051        1.19247807
      110.72154       56.56544949        1.12122588
      110.82123       54.49158539        1.13645142
      110.92093       56.64947581        1.35156569
      111.02062       56.44119458        1.24634288
      111.12031       57.18886682        1.26397151
      111.22001       55.96642585        1.22691283
      111.31970       56.22658465        1.33464290
      111.41939       57.64932996        1.39847970
      111.51909       59.00736969        1.28387029
      111.61878       59.11570138        1.21054244
      111.71847       62.94776333        1.16235888
      111.81817       62.93435137        1.26143167
      111.91786       65.30624021        1.35239742
      112.01755       67.76395401        1.34527415
      112.11725       71.30790075        1.39062899
      112.21694       69.82838786        1.36987550
      112.31663       74.22346907        1.55655631
      112.41633       76.47902574        1.55232699
      112.51602       76.79738664        1.43248929
      112.61571       81.83279217        1.41082147
      112.71541       83.10829516        1.33992262
      112.81510       86.85430309        1.53610695
      112.91479       87.31266646        1.56890789
      113.01449       88.59436917        1.54765997
      113.11418       90.03903382        1.55509151
      113.21387       88.29125842        1.53282503
      113.31357       89.68597525        1.71579755
      113.41326       91.28175941        1.64513837
      113.51296       87.68185031        1.51648676
      113.61265       94.31058544        1.51791426
      113.71234       93.51311759        1.44368674
      113.81204       92.87946483        1.64829126
      113.91173       89.75648482        1.56997128
      114.01142       86.37422890        1.52441324
      114.11112       88.09732480        1.53882026
      114.21081       89.92498203        1.56604615
      114.31050       86.25718040        1.73913898
      114.41020       87.62974697        1.61987443
      114.50989       86.08276620        1.50294101
      114.60958       83.45780729        1.43194056
      114.70928       85.95560810        1.40171375
      114.80897       80.51661421        1.53838724
      114.90866       81.15207168        1.45675749
      115.00836       85.23769819        1.48621263
      115.10805       84.62111185        1.48886094
      115.20774       83.43078200        1.50066157
      115.30744       86.30743725        1.75266404
      115.40713       85.32178526        1.57834637
      115.50682       87.98508887        1.51329992
      115.60652       85.95594583        1.44145685
      115.70621       88.67910636        1.40725171
      115.80590       89.19285547        1.64645149
      115.90560       94.65002693        1.53755745
      116.00529       93.79396568        1.54761968
      116.10498       95.67133629        1.57946704
      116.20468       96.74903317        1.62486687
      116.30437      100.78914744        1.97724968
      116.40406      100.81822702        1.72235139
      116.50376      103.25710788        1.64732293
      116.60345      103.63789854        1.58423880
      116.70314      110.92660969        1.58968532
      116.80284      114.72164141        1.92114668
      116.90253      121.69433883        1.78034704
      117.00222      124.70455826        1.78816536
      117.10192      129.68592738        1.87271400
      117.20161      127.69745154        1.88079265
      117.30131      129.57862801        2.26726276
      117.40100      134.11075465        1.93944519
      117.50069      138.52325943        1.87235440
      117.60039      145.81449689        1.83887160
      117.70008      150.59869357        1.81074898
      117.79977      155.16434117        2.25262688
      117.89947      161.33368438        1.99725704
      117.99916      158.06117043        2.00024270
      118.09885      162.50456952        2.06651079
      118.19855      164.02587068        2.17466103
      118.29824      169.93711519        2.42707819
      118.39793      167.62752405        2.18839644
      118.49763      174.07857018        2.10487925
      118.59732      173.19452209        2.02698809
      118.69701      182.19187029        2.16643128
      118.79671      177.24191926        2.30684931
      118.89640      178.08441054        2.15597009
      118.99609      174.23699348        2.12998588
      119.09579      172.79288020        2.14575622
      119.19548      177.16111152        2.37439795
      119.29517      177.40956487        2.46857044
      119.39487      172.81569328        2.23933872
      119.49456      174.23062125        2.11900282
      119.59425      170.11052634        2.03311691
      119.69395      164.79216032        2.11077257
      119.79364      159.30238272        2.09696352
      119.89333      153.91873851        1.99451858
      119.99303      151.35100843        1.93087547
      120.09272      145.75932802        1.93767872
      120.19241      140.54715210        2.13830349
      120.29211      142.17270628        2.12882622
      120.39180      133.77565787        1.96952351
      120.49149      129.80634209        1.80412511
      120.59119      129.72805845        1.75056846
      120.69088      124.78916587        1.84795583
      120.79057      124.07739089        1.80307557
      120.89027      121.75844013        1.75343730
      120.98996      121.17811864        1.73577496
      121.08966      122.07340926        1.75527234
      121.18935      120.55868486        1.99936901
      121.28904      116.34326905        1.91403025
      121.38874      118.02440450        1.82312810
      121.48843      114.13425181        1.69311305
      121.58812      116.59218904        1.63223876
      121.68782      113.64927823        1.78509261
      121.78751      114.71187346        1.70901834
      121.88720      112.85337793        1.67333569
      121.98690      112.62376902        1.68414393
      122.08659      110.07502823        1.69816936
      122.18628      109.58550374        1.96555775
      122.28598      110.85940466        1.85918536
      122.38567      107.78700591        1.75556884
      122.48536      110.76555504        1.68361549
      122.58506      109.99636739        1.58897224
      122.68475      107.98750246        1.78394875
      122.78444      105.20124412        1.65781013
      122.88414      110.65281064        1.68611153
      122.98383      106.77322007        1.68999676
      123.08352      103.65518330        1.65071902
      123.18322      102.79634807        1.91721070
      123.28291      103.48770977        1.74834400
      123.38260      101.08283983        1.66792350
      123.48230      100.34396962        1.60163812
      123.58199       98.73918150        1.48490558
      123.68168      100.54719557        1.70998269
      123.78138       96.02866761        1.50745239
      123.88107       92.72936711        1.44691246
      123.98076       88.36768064        1.43838205
      124.08046       90.12274263        1.43737938
      124.18015       91.06772852        1.63547596
      124.27984       85.67894452        1.42099683
      124.37954       83.79203608        1.32596262
      124.47923       81.65981623        1.27780331
      124.57893       80.13285206        1.34850817
