        5.04651       58.89581373        2.61438305
        5.14621       53.84222818        2.40866506
        5.24590       52.56257143        2.34563569
        5.34559       54.97958189        2.20042911
        5.44529       49.39134499        2.26850107
        5.54498       52.33365010        1.96443286
        5.64467       46.14299910        1.82806571
        5.74437       49.99102506        1.71783549
        5.84406       50.54106055        1.74801688
        5.94375       49.62741781        1.72976700
        6.04345       49.55483883        1.67955936
        6.14314       49.92869019        1.54363530
        6.24283       52.69144505        1.63827510
        6.34253       47.19646173        1.47856935
        6.44222       47.60375285        1.56360595
        6.54191       50.06260507        1.51918220
        6.64161       47.99901568        1.40910332
        6.74130       46.94706679        1.39915448
        6.84099       46.64162097        1.38448249
        6.94069       47.75922398        1.42212374
        7.04038       45.77929353        1.28513428
        7.14007       47.67703497        1.30886974
        7.23977       46.04006779        1.26364318
        7.33946       48.19692142        1.31279458
        7.43915       46.20959699        1.26858128
        7.53885       47.16267152        1.25799275
        7.63854       48.55281117        1.22001263
        7.73823       47.20748831        1.24907838
        7.83793       46.70492168        1.20227524
        7.93762       46.30005767        1.24868010
        8.03731       47.45752932        1.13380773
        8.13701       46.48049563        1.11697125
        8.23670       48.00161855        1.15118069
        8.33640       46.65321030        1.13515408
        8.43609       41.86177633        1.12397332
        8.53578       45.15429909        1.08743429
        8.63548       45.74026883        1.08191045
        8.73517       46.53718018        1.07052550
        8.83486       47.52120311        1.08445582
        8.93456       47.34392938        1.07686580
        9.03425       48.14339380        1.05414951
        9.13394       45.81659199        1.03021226
        9.23364       44.69307319        1.03231840
        9.33333       46.40146438        1.07334408
        9.43302       46.94958366        1.08008767
        9.53272       46.40841357        1.03754430
        9.63241       43.71815077        1.03538774
        9.73210       46.98973047        1.07140225
        9.83180       46.19695989        1.10690518
        9.93149       46.07530866        1.09752817
       10.03118       47.11405025        1.06790929
       10.13088       44.99480892        1.01853166
       10.23057       45.49737567        1.07257046
       10.33026       47.93593738        1.13810222
       10.42996       46.04805726        1.10010976
       10.52965       45.01197200        1.05331255
       10.62934       47.73466254        1.08741188
       10.72904       48.93556976        1.11733610
       10.82873       48.69588206        1.10897165
       10.92842       46.30758991        1.09946611
       11.02812       49.13662743        1.07910489
       11.12781       50.26055463        1.13056889
       11.22750       50.13117248        1.14035680
       11.32720       50.26547016        1.17260358
       11.42689       48.91343050        1.11653849
       11.52658       50.48593871        1.12088859
       11.62628       53.63955217        1.16803218
       11.72597       56.75777233        1.22715833
       11.82566       59.48959710        1.29140498
       11.92536       64.72916407        1.26085081
       12.02505       69.09920863        1.30898522
       12.12475       75.01644726        1.36292421
       12.22444       80.50140415        1.49738557
       12.32413       93.99414451        1.64338597
       12.42383      104.08890708        1.64190438
       12.52352      123.57800464        1.77892130
       12.62321      145.90434746        1.98890279
       12.72291      168.81657349        2.08279006
       12.82260      193.47236052        2.42488105
       12.92229      219.83337176        2.34873008
       13.02199      248.75596349        2.47982339
       13.12168      273.29001350        2.64495637
       13.22137      306.55118991        2.89341990
       13.32107      325.76643379        3.07861056
       13.42076      347.88461174        3.06261919
       13.52045      363.86711906        3.16988172
       13.62015      368.87703468        3.09320984
       13.71984      347.13275967        3.12589718
       13.81953      316.11648718        3.03244185
       13.91923      278.84558424        2.67458653
       14.01892      219.61803519        2.30963632
       14.11861      169.10568946        2.11369845
       14.21831      135.35070261        1.89248968
       14.31800      105.55555532        1.75880039
       14.41769       81.97654674        1.49219309
       14.51739       69.40407593        1.33934298
       14.61708       60.11151167        1.24940206
       14.71677       51.91637410        1.17983291
       14.81647       50.72139962        1.22165516
       14.91616       50.66750955        1.12287451
       15.01585       47.94897476        1.11192838
       15.11555       50.24537189        1.15153106
       15.21524       47.86289374        1.15825216
       15.31493       47.14113050        1.17717562
       15.41463       46.60760230        1.13328385
       15.51432       47.43616158        1.10791998
       15.61401       44.47208650        1.09979821
       15.71371       48.39501584        1.13955459
       15.81340       45.11988957        1.14452348
       15.91310       47.14209200        1.13681243
       16.01279       44.70781681        1.05992021
       16.11248       44.71168998        1.08843031
       16.21218       46.63638817        1.14249320
       16.31187       47.67651602        1.15803039
       16.41156       48.57414148        1.14715236
       16.51126       47.69388031        1.15589409
       16.61095       49.22908287        1.13240357
       16.71064       50.05254881        1.17797007
       16.81034       50.58327003        1.18780358
       16.91003       52.52203911        1.17552822
       17.00972       54.01147701        1.14444954
       17.10942       58.76617823        1.26193985
       17.20911       59.93708155        1.28574208
       17.30880       64.54670163        1.34604696
       17.40850       68.62100953        1.38772163
       17.50819       69.74881877        1.35854129
       17.60788       73.12455333        1.43437630
       17.70758       74.77827031        1.45656488
       17.80727       73.30317930        1.45985629
       17.90696       72.38965006        1.35636379
       18.00666       65.88579980        1.31642703
       18.10635       64.08583130        1.26278024
       18.20604       58.38403010        1.32198901
       18.30574       56.70560428        1.24163672
       18.40543       53.14050469        1.17208993
       18.50512       52.09549468        1.19709203
       18.60482       52.28872419        1.18050891
       18.70451       50.98787022        1.23184279
       18.80420       51.17550460        1.15936427
       18.90390       50.17352909        1.13566380
       19.00359       50.93029915        1.11431712
       19.10328       47.26563733        1.13558069
       19.20298       47.64947607        1.17567688
       19.30267       46.46547384        1.11486428
       19.40237       45.93372927        1.09590085
       19.50206       44.36975640        1.10410127
       19.60175       46.12124594        1.11312900
       19.70145       46.83392510        1.17623220
       19.80114       46.20959916        1.10810050
       19.90083       44.47635804        1.05031769
       20.00053       45.88557903        1.08581098
       20.10022       46.84795464        1.10532449
       20.19991       47.93344151        1.19537284
       20.29961       48.07587379        1.13430924
       20.39930       48.92658402        1.17890467
       20.49899       51.24130071        1.18560653
       20.59869       49.69853582        1.18890552
       20.69838       50.79947620        1.24637613
       20.79807       50.68845765        1.18748828
       20.89777       53.60608025        1.19368209
       20.99746       54.95078738        1.22063598
       21.09715       57.26365049        1.31260426
       21.19685       56.33685417        1.29511101
       21.29654       57.33339616        1.27454338
       21.39623       56.22491873        1.26217861
       21.49593       55.16475022        1.23230748
       21.59562       51.55410631        1.21982751
       21.69531       49.54760214        1.24375767
       21.79501       47.12889333        1.10957748
       21.89470       47.02018608        1.08335446
       21.99439       47.16793378        1.13106483
       22.09409       44.87819584        1.10591448
       22.19378       45.46304908        1.18212387
       22.29347       47.48585033        1.12527020
       22.39317       45.88939032        1.13478633
       22.49286       45.70085423        1.13153934
       22.59255       46.69325268        1.15724868
       22.69225       48.73986211        1.24603964
       22.79194       52.16437757        1.15784630
       22.89163       54.03391389        1.15544651
       22.99133       60.41173432        1.25589881
       23.09102       63.89456528        1.34154043
       23.19072       66.58244235        1.37282679
       23.29041       68.25388170        1.37272637
       23.39010       70.86722614        1.41354348
       23.48980       70.40289965        1.41399721
       23.58949       65.65899338        1.38360768
       23.68918       62.77510804        1.42249510
       23.78888       57.57710316        1.21388475
       23.88857       54.17412844        1.19273145
       23.98826       50.45573127        1.17662753
       24.08796       47.33656598        1.11734970
       24.18765       46.17265810        1.18238968
       24.28734       47.13524343        1.13746253
       24.38704       45.01367783        1.13006313
       24.48673       44.37183660        1.11793974
       24.58642       44.73921856        1.15971676
       24.68612       44.25392149        1.15186590
       24.78581       45.16087735        1.07268478
       24.88550       45.05563772        1.07099352
       24.98520       44.59031640        1.10484167
       25.08489       45.50239247        1.13840584
       25.18458       46.32882096        1.17286120
       25.28428       46.02838355        1.12674500
       25.38397       47.03501111        1.13350647
       25.48366       50.75528701        1.18468074
       25.58336       55.23218925        1.28829981
       25.68305       62.97923057        1.34958239
       25.78274       68.19499117        1.32560526
       25.88244       83.58112116        1.50518974
       25.98213      104.54517067        1.69796060
       26.08182      127.74157916        1.92701446
       26.18152      146.92965492        2.11720304
       26.28121      174.89878324        2.18618721
       26.38090      193.24701601        2.31820224
       26.48060      195.89116559        2.39852565
       26.58029      187.05062455        2.44478805
       26.67998      173.67361627        2.22474569
       26.77968      150.22976872        2.04391757
       26.87937      117.12901372        1.77774444
       26.97907       98.21662508        1.61385493
       27.07876       85.53916806        1.62128980
       27.17845       78.55038219        1.48445040
       27.27815       77.65486016        1.44132422
       27.37784       82.87835414        1.54727324
       27.47753       84.64963325        1.54070035
       27.57723       83.14671246        1.59948206
       27.67692       84.24266827        1.57156342
       27.77661       75.95142254        1.42392222
       27.87631       70.96805040        1.35341866
       27.97600       63.72213782        1.31114396
       28.07569       56.30145730        1.30411788
       28.17539       51.27922532        1.19130925
       28.27508       50.41084301        1.18168193
       28.37477       48.66903483        1.18864952
       28.47447       49.95159013        1.19486096
       28.57416       51.18006782        1.30763208
       28.67385       50.96919121        1.16096608
       28.77355       53.42159979        1.16721483
       28.87324       52.96594859        1.19315472
       28.97293       56.65659103        1.23706097
       29.07263       56.26851724        1.34381324
       29.17232       57.68040908        1.24169953
       29.27201       53.57704338        1.21865899
       29.37171       55.31207076        1.27386349
       29.47140       49.82712480        1.19488033
       29.57109       48.21315214        1.24629738
       29.67079       47.40771004        1.12506979
       29.77048       48.00026061        1.13473053
       29.87017       45.33947456        1.08108392
       29.96987       46.46892453        1.14762531
       30.06956       44.85635962        1.16319336
       30.16925       46.41813728        1.11418284
       30.26895       45.36196335        1.10560147
       30.36864       47.76414199        1.15313324
       30.46833       50.40666404        1.19671653
       30.56803       52.07712488        1.28497733
       30.66772       54.90420865        1.22790555
       30.76742       57.00184166        1.22617373
       30.86711       61.56537799        1.29990097
       30.96680       61.61926953        1.30797878
       31.06650       60.24872890        1.35608214
       31.16619       59.13563020        1.26316607
       31.26588       57.85464431        1.24185461
       31.36558       55.95015571        1.23715968
       31.46527       55.99362762        1.28778404
       31.56496       59.14218394        1.34489310
       31.66466       63.31569463        1.30152755
       31.76435       68.05003023        1.34809390
       31.86404       78.30232603        1.42750770
       31.96374       82.68807786        1.50112082
       32.06343       88.20958071        1.60473613
       32.16312       85.51588476        1.48477222
       32.26282       81.19334673        1.48194646
       32.36251       77.51711083        1.50583457
       32.46220       73.61096037        1.49359791
       32.56190       68.34859395        1.46453186
       32.66159       69.28952559        1.40040311
       32.76128       66.28693634        1.33886343
       32.86098       64.43023055        1.33971857
       32.96067       64.07779466        1.35277334
       33.06036       62.17937732        1.35680880
       33.16006       60.24608282        1.25767877
       33.25975       56.25433440        1.25460448
       33.35944       58.38000368        1.28511141
       33.45914       54.21444554        1.28533109
       33.55883       54.21658385        1.28836315
       33.65852       59.29227035        1.25657343
       33.75822       62.35223476        1.28644534
       33.85791       73.62566731        1.40406153
       33.95760       83.71224190        1.54175835
       34.05730       90.70609740        1.58945196
       34.15699      106.68885796        1.69703784
       34.25668      120.65087436        1.79875719
       34.35638      149.38649086        2.05435354
       34.45607      186.56502814        2.41923731
       34.55577      231.11732611        2.56717803
       34.65546      292.04571239        2.76905456
       34.75515      358.16694562        3.12621160
       34.85485      423.48498007        3.37588088
       34.95454      444.32030489        3.56695471
       35.05423      434.95418669        3.64995743
       35.15393      395.09111151        3.26611744
       35.25362      325.99191639        3.01140052
       35.35331      249.02488045        2.69828163
       35.45301      193.30752787        2.47956610
       35.55270      144.55710244        2.08643382
       35.65239      111.96055858        1.77256967
       35.75209       91.03961801        1.58606389
       35.85178       82.65449690        1.50897524
       35.95147       73.93253867        1.46037942
       36.05117       68.84036202        1.37999114
       36.15086       67.17104899        1.31068055
       36.25055       63.36955237        1.32988839
       36.35025       60.90162510        1.32916887
       36.44994       60.70840925        1.35358834
       36.54963       58.01792843        1.27015304
       36.64933       58.12280990        1.25233764
       36.74902       54.69010567        1.22734021
       36.84871       54.98028186        1.22172716
       36.94841       52.94235596        1.29641403
       37.04810       51.87366324        1.13147136
       37.14779       52.22735189        1.15861758
       37.24749       50.50326615        1.17095543
       37.34718       46.58940961        1.15319752
       37.44687       47.35282569        1.24890430
       37.54657       47.70910252        1.14446327
       37.64626       47.10994673        1.13286961
       37.74595       45.36623234        1.09425694
       37.84565       46.48040104        1.17199984
       37.94534       46.67737845        1.19650656
       38.04503       48.33285319        1.10050817
       38.14473       45.85731603        1.08236496
       38.24442       46.26780302        1.10708431
       38.34412       46.88954830        1.16521800
       38.44381       47.77571832        1.27183058
       38.54350       48.50003200        1.14231541
       38.64320       49.90856315        1.15532939
       38.74289       50.87003740        1.18170019
       38.84258       53.73955890        1.21763270
       38.94228       54.68003561        1.28830526
       39.04197       58.52725254        1.20200176
       39.14166       64.08839539        1.30868152
       39.24136       67.30746228        1.33765842
       39.34105       71.34903397        1.42544464
       39.44074       70.73458120        1.54807520
       39.54044       71.98239694        1.39640310
       39.64013       69.03653410        1.36322134
       39.73982       66.90233246        1.34733309
       39.83952       60.64352004        1.27383070
       39.93921       63.45842668        1.38180822
       40.03890       58.00582247        1.20907014
       40.13860       56.21289071        1.18862676
       40.23829       54.38819421        1.21046229
       40.33798       56.27844641        1.26978455
       40.43768       56.23065887        1.32797424
       40.53737       55.97555389        1.22972117
       40.63706       57.55727834        1.27322719
       40.73676       57.33327354        1.26871874
       40.83645       61.51229723        1.32530960
       40.93614       62.22777392        1.35535774
       41.03584       66.94019570        1.32309954
       41.13553       76.82850604        1.41943451
       41.23522       91.12993930        1.58396143
       41.33492      117.22322638        1.88171758
       41.43461      139.47479967        2.11914828
       41.53430      164.49229894        2.15609316
       41.63400      188.93208783        2.36201787
       41.73369      209.78429964        2.43551073
       41.83338      213.39567355        2.52194594
       41.93308      220.05715330        2.53870352
       42.03277      224.26974383        2.34261616
       42.13247      248.69516584        2.59385419
       42.23216      297.26685957        2.84292301
       42.33185      361.81108806        3.36911697
       42.43155      416.90863550        3.56383140
       42.53124      472.61590001        3.67445214
       42.63093      509.31659039        3.82135001
       42.73063      528.39155729        3.91018280
       42.83032      516.89829096        3.93583432
       42.93001      487.17712548        3.67753366
       43.02971      432.00023653        3.27161853
       43.12940      349.46511983        3.00052079
       43.22909      274.20679982        2.79197717
       43.32879      210.75815940        2.57680010
       43.42848      162.08300560        2.20868599
       43.52817      118.75899653        1.80746198
       43.62787       90.29513159        1.56990701
       43.72756       76.28618702        1.47673960
       43.82725       68.49047310        1.46083849
       43.92695       60.79509864        1.24780285
       44.02664       58.96498934        1.22296057
       44.12633       56.64701027        1.24327421
       44.22603       52.60478152        1.24687859
       44.32572       53.70073190        1.32783649
       44.42541       54.95064403        1.28247287
       44.52511       55.36384144        1.25268306
       44.62480       56.25509529        1.28061568
       44.72449       55.34236123        1.23086703
       44.82419       61.48390265        1.45607503
       44.92388       62.62834317        1.22562856
       45.02357       74.61010478        1.34914233
       45.12327       89.04728883        1.51864962
       45.22296      106.21615919        1.70283990
       45.32265      128.86410757        2.07567905
       45.42235      152.20744758        2.05477570
       45.52204      179.01860948        2.20687240
       45.62173      200.00484117        2.37546816
       45.72143      214.77328364        2.46171193
       45.82112      223.73492037        2.75072275
       45.92082      222.51565337        2.32865423
       46.02051      221.86039347        2.37491224
       46.12020      218.03277546        2.36205021
       46.21990      212.69685449        2.45173069
       46.31959      204.29389515        2.59481586
       46.41928      186.88003168        2.29174567
       46.51898      166.38261617        2.17390657
       46.61867      134.08849338        1.94036209
       46.71836      111.24606839        1.81192765
       46.81806       88.95318199        1.67908256
       46.91775       73.84902688        1.33302450
       47.01744       65.97275243        1.28968875
       47.11714       64.47092156        1.30397157
       47.21683       72.32315923        1.42209602
       47.31652       77.68556457        1.60808883
       47.41622       89.07418433        1.62312640
       47.51591      105.15174943        1.76736573
       47.61560      118.42748315        1.86022818
       47.71530      132.60338651        1.99000363
       47.81499      144.91399482        2.13296043
       47.91468      154.58508851        1.92729210
       48.01438      165.30090218        1.99421492
       48.11407      170.87041827        2.10361277
       48.21376      172.71887510        2.20832265
       48.31346      163.10120533        2.22187403
       48.41315      158.75995607        2.04338787
       48.51284      142.98668483        2.00322797
       48.61254      124.16545770        1.85853049
       48.71223      109.70697730        1.77831827
       48.81192       94.50814780        1.64614818
       48.91162       78.81520886        1.34711706
       49.01131       65.30431107        1.26876820
       49.11100       60.83687350        1.26859728
       49.21070       53.86548585        1.25296479
       49.31039       53.56713564        1.28595087
       49.41008       48.92076416        1.16075436
       49.50978       49.91685517        1.19681681
       49.60947       47.13955341        1.17144465
       49.70917       49.60432046        1.24634656
       49.80886       48.21874608        1.19588416
       49.90855       48.38062944        1.09120733
       50.00825       49.93691487        1.13209703
       50.10794       50.50300002        1.16442943
       50.20763       51.73620301        1.23137655
       50.30733       52.00521143        1.29321341
       50.40702       52.51605684        1.21869569
       50.50671       57.13861929        1.27514175
       50.60641       56.13707089        1.26566246
       50.70610       56.15613197        1.30254177
       50.80579       54.77856161        1.26942783
       50.90549       55.98045480        1.15703337
       51.00518       54.13831480        1.14785033
       51.10487       55.60333572        1.20253258
       51.20457       55.47690757        1.27874144
       51.30426       54.09236083        1.25605410
       51.40395       56.70777535        1.23302462
       51.50365       57.38385960        1.25454928
       51.60334       58.10631258        1.28738635
       51.70303       58.64674699        1.37350152
       51.80273       60.65511105        1.28135322
       51.90242       60.68995960        1.19752644
       52.00211       61.34782004        1.20972045
       52.10181       60.41749101        1.23846936
       52.20150       62.23470907        1.38434037
       52.30119       61.65906404        1.32732486
       52.40089       62.21473079        1.31244116
       52.50058       62.12506098        1.33626673
       52.60027       60.01779223        1.33124834
       52.69997       60.80522124        1.46851166
       52.79966       62.79735480        1.25477031
       52.89935       66.85294946        1.24936601
       52.99905       77.45653673        1.36722407
       53.09874       87.74792969        1.50252457
       53.19843      101.53656919        1.85148081
       53.29813      111.33545071        1.72322697
       53.39782      122.97981376        1.87395068
       53.49752      130.96595979        1.94280812
       53.59721      142.44634299        2.02513687
       53.69690      143.82449017        2.23270896
       53.79660      147.13747038        1.89183529
       53.89629      147.55384323        1.87410962
       53.99598      144.21511111        1.89796724
       54.09568      134.67897182        1.91493195
       54.19537      121.43440885        1.98245509
       54.29506      114.62352452        1.76926792
       54.39476      105.40996386        1.70948225
       54.49445       99.19416131        1.65928608
       54.59414       93.23058836        1.63288259
       54.69384       92.82386046        1.73818484
       54.79353       86.02648782        1.43462801
       54.89322       83.67223046        1.40967669
       54.99292       80.96013816        1.42714561
       55.09261       73.26820337        1.41154246
       55.19230       72.76595033        1.51065164
       55.29200       67.76944882        1.35669800
       55.39169       64.47919044        1.36534686
       55.49138       60.56601945        1.31820154
       55.59108       60.14816737        1.35577084
       55.69077       53.86373438        1.31640311
       55.79046       55.56669437        1.16902963
       55.89016       53.96334552        1.14922294
       55.98985       56.11721740        1.17953509
       56.08954       58.01734733        1.23894050
       56.18924       62.91116464        1.39253967
       56.28893       73.26559039        1.37581448
       56.38862       82.27015669        1.50839126
       56.48832       92.93874685        1.63120871
       56.58801      106.18173548        1.79458962
       56.68770      113.79489941        1.91779522
       56.78740      111.42679514        1.62393826
       56.88709      118.48667063        1.69173252
       56.98679      105.96868154        1.60069633
       57.08648       97.01091772        1.62319060
       57.18617       85.90029819        1.58109367
       57.28587       74.32304547        1.37369379
       57.38556       66.11862392        1.37896588
       57.48525       62.05167427        1.36143664
       57.58495       54.54700594        1.30541254
       57.68464       54.25086548        1.31322912
       57.78433       52.14801498        1.12625366
       57.88403       51.06487568        1.12744586
       57.98372       52.55441290        1.16204531
       58.08341       51.67240903        1.24581440
       58.18311       54.29576151        1.30645585
       58.28280       54.39396178        1.23165337
       58.38249       54.68445702        1.29040815
       58.48219       51.53317367        1.27958052
       58.58188       51.29390217        1.29056004
       58.68157       52.00315930        1.27338072
       58.78127       52.95118485        1.12397530
       58.88096       52.84053437        1.10622941
       58.98065       55.19261063        1.17372859
       59.08035       55.90561751        1.26052222
       59.18004       56.65325086        1.28723254
       59.27973       59.22873772        1.24189054
       59.37943       61.84653895        1.31097797
       59.47912       67.31849986        1.42405614
       59.57881       70.02814152        1.52165345
       59.67851       75.68732702        1.47509602
       59.77820       84.54300931        1.43352835
       59.87789       88.50702217        1.46162325
       59.97759       99.70019120        1.62328432
       60.07728      101.42020109        1.77298623
       60.17697      105.12461367        1.71973805
       60.27667      109.90229789        1.70983719
       60.37636      107.58996364        1.72443027
       60.47605      105.52824005        1.78156391
       60.57575      102.61310796        1.92521780
       60.67544       91.01466423        1.55717509
       60.77514       85.45867994        1.43429997
       60.87483       79.58362749        1.35708397
       60.97452       72.12593848        1.36075732
       61.07422       68.30800737        1.48747625
       61.17391       64.70068933        1.25386780
       61.27360       65.17841110        1.30319993
       61.37330       66.15139988        1.36162865
       61.47299       67.20666128        1.43281651
       61.57268       66.59594301        1.62191066
       61.67238       69.88669626        1.35431688
       61.77207       71.40221721        1.33330121
       61.87176       71.36674753        1.31811718
       61.97146       69.79531668        1.35326166
       62.07115       68.84983157        1.52219293
       62.17084       67.86743849        1.32403471
       62.27054       68.15923673        1.38353113
       62.37023       66.87383345        1.42495317
       62.46992       67.62888054        1.48212755
       62.56962       70.06748766        1.69454307
       62.66931       72.51369669        1.38885465
       62.76900       77.03886461        1.39549005
       62.86870       87.61796605        1.45623592
       62.96839       95.84510518        1.57202790
       63.06808       99.06511947        1.77867908
       63.16778      106.16458757        1.63480111
       63.26747      111.87554590        1.73687978
       63.36716      114.05269801        1.81997151
       63.46686      112.56716589        1.86210854
       63.56655      115.30738569        2.00227237
       63.66624      124.21610958        1.76677381
       63.76594      142.22183945        1.83732370
       63.86563      153.07987067        1.90077566
       63.96532      168.57077178        2.08814012
       64.06502      173.30283903        2.26851566
       64.16471      174.46721690        2.10549139
       64.26440      168.39767830        2.15315243
       64.36410      155.92782216        2.11316292
       64.46379      138.90483810        2.10840242
       64.56349      130.73023934        2.08154859
       64.66318      108.80271378        1.66109928
       64.76287       90.76546433        1.49775626
       64.86257       74.89641255        1.35786452
       64.96226       66.17050349        1.33657218
       65.06195       60.22221919        1.37851926
       65.16165       57.65096520        1.21660663
       65.26134       52.66842260        1.18986406
       65.36103       53.48947615        1.25127562
       65.46073       52.78202932        1.28378023
       65.56042       54.80064134        1.36632604
       65.66011       54.86795655        1.19211306
       65.75981       59.41678642        1.22833134
       65.85950       59.81951894        1.22463377
       65.95919       62.68808881        1.31243233
       66.05889       66.53272215        1.39869089
       66.15858       68.09453886        1.34559419
       66.25827       75.21475132        1.46280392
       66.35797       83.46719879        1.60556221
       66.45766       96.00727669        1.83017056
       66.55735      108.08611661        1.94186481
       66.65705      121.85741553        1.82947688
       66.75674      130.07268932        1.84201307
       66.85643      150.66048837        1.96094028
       66.95613      161.64535074        2.11243847
       67.05582      169.47511623        2.17967947
       67.15551      172.24521925        2.09130133
       67.25521      167.29036244        2.16308231
       67.35490      153.23045929        2.17866584
       67.45459      140.48194364        2.19954837
       67.55429      124.80504657        1.98574120
       67.65398      106.36812230        1.64258159
       67.75367       90.69812472        1.50383561
       67.85337       80.07571814        1.43004757
       67.95306       76.18976782        1.49145724
       68.05275       74.54882351        1.39687455
       68.15245       78.73454242        1.42334061
       68.25214       86.62077990        1.58487558
       68.35184       95.93757552        1.73868434
       68.45153       99.07268706        1.94510660
       68.55122      107.36865654        1.74472540
       68.65092      115.33509502        1.68576336
       68.75061      124.90373069        1.77284331
       68.85030      126.83778148        1.82096989
       68.95000      127.50461879        2.07003037
       69.04969      122.45392829        1.71298147
       69.14938      116.33668452        1.71670121
       69.24908      107.72414333        1.76387421
       69.34877       93.86096968        1.70229351
       69.44846       89.28656158        1.92571487
       69.54816       79.41462089        1.41565619
       69.64785       69.01894748        1.30081648
       69.74754       61.15261906        1.23648915
       69.84724       55.30907484        1.20638231
       69.94693       54.63069602        1.35308819
       70.04662       51.43418346        1.07954492
       70.14632       47.78018657        1.08183151
       70.24601       46.36146590        1.14096841
       70.34570       45.99884793        1.20261732
       70.44540       45.11883706        1.40330376
       70.54509       48.13775250        1.13468752
       70.64478       50.86305212        1.16481860
       70.74448       49.96159680        1.17271125
       70.84417       50.67580335        1.22560127
       70.94386       48.15853813        1.31140897
       71.04356       49.73878662        1.10290995
       71.14325       51.33852661        1.16446971
       71.24294       53.32580056        1.24878594
       71.34264       52.21249320        1.31019542
       71.44233       54.07854837        1.48803123
       71.54202       54.04412642        1.21105690
       71.64172       53.35926766        1.17053562
       71.74141       51.66915642        1.13087915
       71.84110       53.35134064        1.18961219
       71.94080       52.13283013        1.28136135
       72.04049       52.09591392        1.08416077
       72.14019       50.34338251        1.11036066
       72.23988       50.46082021        1.16314179
       72.33957       50.82867557        1.30398089
       72.43927       53.12145915        1.46755733
       72.53896       52.06473828        1.16485880
       72.63865       52.87309288        1.14743424
       72.73835       53.59572578        1.12986992
       72.83804       56.92796446        1.22977666
       72.93773       59.11444447        1.33124350
       73.03743       59.86083759        1.16283635
       73.13712       61.74720861        1.24555346
       73.23681       61.11975773        1.30187196
       73.33651       61.24035207        1.43393702
       73.43620       62.01551899        1.56299748
       73.53589       60.81809595        1.24856963
       73.63559       66.10040729        1.28146128
       73.73528       63.69220682        1.25207962
       73.83497       64.32591840        1.33402874
       73.93467       61.91686972        1.37806102
       74.03436       62.71650530        1.22746588
       74.13405       66.41007786        1.31696611
       74.23375       65.69748253        1.36439532
       74.33344       66.30427514        1.50896529
       74.43313       67.32818841        1.57789396
       74.53283       66.89619639        1.33631303
       74.63252       70.54270065        1.36247942
       74.73221       71.73330375        1.36726143
       74.83191       78.28633091        1.51551993
       74.93160       79.82241813        1.54761676
       75.03129       81.08737305        1.38676071
       75.13099       81.35217226        1.43870717
       75.23068       87.01830612        1.55228514
       75.33037       93.20561346        1.76618486
       75.43007       97.17355795        1.82954551
       75.52976      102.68100229        1.63370826
       75.62945      115.00222005        1.72801982
       75.72915      121.20953569        1.76723974
       75.82884      129.04539015        1.96367260
       75.92854      131.42876617        1.86039111
       76.02823      139.46593615        1.79776754
       76.12792      147.23141979        1.93109433
       76.22762      151.26534577        2.06539509
       76.32731      147.39516412        2.30227416
       76.42700      150.91066971        2.19896339
       76.52670      150.43698214        2.02545786
       76.62639      142.10155451        1.94316574
       76.72608      135.33182708        1.86450603
       76.82578      127.95675923        2.08860576
       76.92547      126.01846753        1.66011506
       77.02516      124.82142209        1.71238427
       77.12486      126.17409291        1.80862199
       77.22455      127.52420830        1.93610319
       77.32424      125.60176995        2.36034010
       77.42394      134.44747142        1.95046272
       77.52363      131.93468198        1.86689044
       77.62332      137.97859305        1.90078508
       77.72302      134.45892663        1.88033512
       77.82271      140.04671691        2.25090916
       77.92240      140.74183920        1.72790967
       78.02210      141.38393654        1.86877212
       78.12179      140.41195427        1.98903105
       78.22148      138.88640915        2.09181642
       78.32118      132.19807153        2.36759997
       78.42087      129.36089898        1.84313496
       78.52056      122.49230639        1.85178661
       78.62026      118.23287118        1.80485950
       78.71995      113.79631861        1.77643542
       78.81964      102.44305259        1.88201433
       78.91934       98.07468202        1.42672739
       79.01903       92.80617184        1.52139845
       79.11872       78.81177558        1.45842185
       79.21842       72.69245070        1.49389506
       79.31811       72.67793752        1.68260168
       79.41780       66.08516404        1.30125720
       79.51750       68.93693895        1.35058332
       79.61719       68.76470796        1.35285638
       79.71689       67.38857810        1.39039207
       79.81658       61.87403903        1.41201231
       79.91627       65.12633785        1.22808795
       80.01597       62.34270923        1.23490328
       80.11566       64.84490443        1.31668987
       80.21535       59.96517450        1.35325237
       80.31505       61.05222954        1.62326961
       80.41474       64.88527346        1.28607955
       80.51443       67.50862294        1.30619434
       80.61413       73.05512955        1.40412206
       80.71382       80.45258011        1.52465687
       80.81351       83.70891382        1.74771210
       80.91321       91.40402583        1.34703188
       81.01290      110.12317064        1.59697229
       81.11259      127.65743794        1.85662503
       81.21229      145.06507211        2.14156361
       81.31198      155.32840611        2.47231804
       81.41167      176.06749983        2.06181047
       81.51137      200.39789420        2.26402976
       81.61106      217.10703147        2.46134446
       81.71075      224.24471085        2.58898051
       81.81045      237.16545145        2.82143416
       81.91014      251.88149321        2.23627658
       82.00983      264.56696928        2.45014332
       82.10953      275.13709061        2.79568281
       82.20922      286.87719866        3.17574947
       82.30891      288.01213427        3.33645555
       82.40861      286.84274810        2.70750266
       82.50830      276.33436244        2.64960880
       82.60799      277.37407545        2.85966270
       82.70769      275.86228546        3.10343697
       82.80738      281.56833955        2.99634213
       82.90707      276.65111737        2.41151917
       83.00677      270.95893945        2.54277064
       83.10646      267.08161224        2.97057476
       83.20615      258.82034673        3.25465232
       83.30585      243.98325081        2.99266921
       83.40554      230.71780886        2.41909169
       83.50524      209.56849253        2.24875286
       83.60493      191.26320138        2.36592681
       83.70462      178.66142724        2.57801656
       83.80432      165.47368702        2.16775211
       83.90401      145.88477309        1.70676378
       84.00370      121.38651882        1.62287251
       84.10340      101.93931900        1.77628904
       84.20309       95.86413939        2.09099737
       84.30278       87.06980029        1.62029504
       84.40248       77.44352119        1.34827684
       84.50217       71.65663310        1.27211237
       84.60186       71.63996613        1.43828713
       84.70156       67.48409855        1.82645986
       84.80125       66.80232468        1.26513418
       84.90094       66.02673668        1.12984846
       85.00064       66.66002508        1.16967654
       85.10033       63.61288975        1.35213002
       85.20002       63.65034180        2.31971786
       85.29972       66.66087738        1.25240577
       85.39941       67.91273365        1.28887634
       85.49910       67.15400306        1.24634409
       85.59880       68.43317179        1.41481912
       85.69849       65.86826399        2.49179937
       85.79818       65.03568889        1.16731548
       85.89788       62.88700149        1.12035916
       85.99757       63.29591813        1.15492513
       86.09726       63.23253283        1.32535869
       86.19696       65.49796350        2.59094777
       86.29665       59.71657580        1.17051120
       86.39634       58.44990820        1.17807556
       86.49604       60.90099473        1.18443954
       86.59573       54.74795729        1.19629607
       86.69542       59.11004190        2.59933438
       86.79512       53.22168598        1.02364540
       86.89481       54.14480388        1.01796840
       86.99450       53.35911002        1.04745527
       87.09420       51.62774466        1.14901943
       87.19389       52.94267034        2.75632757
       87.29359       49.10280995        1.07565327
       87.39328       51.89091370        1.12081993
       87.49297       48.41192575        1.05082467
       87.59267       49.76298208        1.08638984
       87.69236       50.47254885        3.27393448
       87.79205       49.18248243        1.00671723
       87.89175       49.94275125        1.00632804
       87.99144       50.39368489        1.05334787
       88.09113       50.15360216        1.11690404
       88.19083       51.80732225        6.00715029
       88.29052       48.69266874        1.10739295
       88.39021       49.68163154        1.12607746
       88.48991       49.25494902        1.07604880
       88.58960       47.88468683        1.02741333
       88.68929       39.43148206        7.22027355
       88.78899       49.47875814        1.00812324
       88.88868       48.18232772        0.97305629
       88.98837       50.07385796        1.03181200
       89.08807       48.78413171        1.04311170
       89.18776       52.42266938        8.79928821
       89.28745       48.79183279        1.05989652
       89.38715       53.00097846        1.11618056
       89.48684       52.22950057        1.08428921
       89.58653       54.63353204        1.08652333
       89.68623       42.10717638        7.72938302
       89.78592       57.63058171        1.08443499
       89.88561       60.13417857        1.08608654
       89.98531       62.33135014        1.13391128
       90.08500       66.93327180        1.21884958
       90.18469       68.41394399       10.27768700
       90.28439       71.93899592        1.29073284
       90.38408       78.61726240        1.37225612
       90.48377       83.91621046        1.39135213
       90.58347       87.62567269        1.39956997
       90.68316       91.97641858       11.17100547
       90.78285       89.83929485        1.35661850
       90.88255       95.55340261        1.36163612
       90.98224       94.96550076        1.40441675
       91.08194       98.52233856        1.47759121
       91.18163       94.38632900       11.53891610
       91.28132       99.18809608        1.52649046
       91.38102       97.30590379        1.55195975
       91.48071       97.68572707        1.51685064
       91.58040       92.16144940        1.42462855
       91.68010       93.46433020       10.85420413
       91.77979       90.35442868        1.35403676
       91.87948       85.40579592        1.29588461
       91.97918       84.51633450        1.33859128
       92.07887       82.95859815        1.38140471
       92.17856       81.44752667       10.40670930
       92.27826       79.11776979        1.39310437
       92.37795       79.55733856        1.43013069
       92.47764       77.39239476        1.33892214
       92.57734       74.94663428        1.27809333
       92.67703       68.03549164        7.90290401
       92.77672       79.30460141        1.26732404
       92.87642       81.75011908        1.26225325
       92.97611       84.35560667        1.33900522
       93.07580       88.91799064        1.56926718
       93.17550       90.30436135        2.97388243
       93.27519       91.61316857        1.46832248
       93.37488       95.03797989        1.45392293
       93.47458       94.35133531        1.46455319
       93.57427       94.86593052        1.69784895
       93.67396       95.85482694        2.30650298
       93.77366       94.75873404        1.42059124
       93.87335       94.56090555        1.35551607
       93.97304       95.73544329        1.42142746
       94.07274       94.53056826        1.83370955
       94.17243       89.46780146        2.03513564
       94.27212       91.05038746        1.52923495
       94.37182       91.32288012        1.49263357
       94.47151       87.98973460        1.40296746
       94.57120       88.36548029        1.85556056
       94.67090       89.35761295        1.88762430
       94.77059       86.27986296        1.44173800
       94.87029       82.09602749        1.27865981
       94.96998       76.16965259        1.24699092
       95.06967       71.13927949        1.38899199
       95.16937       69.83321848        1.88377581
       95.26906       66.99511847        1.42524565
       95.36875       64.15494505        1.26543010
       95.46845       62.24052950        1.19777217
       95.56814       61.18834432        1.36651951
       95.66783       58.47510121        1.50065468
       95.76753       59.79151807        1.25402821
       95.86722       53.49041621        1.00870391
       95.96691       53.26510775        1.04406638
       96.06661       51.24804505        1.31180960
       96.16630       54.23590482        1.43926399
       96.26599       52.28524632        1.26900843
       96.36569       50.58483692        1.11991943
       96.46538       49.90024134        1.07345669
       96.56507       49.45305456        1.31895566
       96.66477       45.87316712        1.23767812
       96.76446       45.30299804        1.09909507
       96.86415       45.94022722        0.95872347
       96.96385       47.78260309        1.00993780
       97.06354       46.98493120        1.35415862
       97.16323       45.78403670        1.27808050
       97.26293       49.57381160        1.24963205
       97.36262       48.43369590        1.14376874
       97.46231       48.95563865        1.05792131
       97.56201       50.43907147        1.36624487
       97.66170       49.15627109        1.21138234
       97.76139       51.77214949        1.12953389
       97.86109       53.04260127        1.03388218
       97.96078       54.04365176        1.06642695
       98.06047       56.36403774        1.51283659
       98.16017       56.31270232        1.34423951
       98.25986       57.44322837        1.29686421
       98.35956       57.49764389        1.22493825
       98.45925       62.86155982        1.19572148
       98.55894       61.84915069        1.54710114
       98.65864       65.03283059        1.36131957
       98.75833       66.68224049        1.28807344
       98.85802       69.03240366        1.22380643
       98.95772       71.43548909        1.23672018
       99.05741       70.91277149        1.71054700
       99.15710       73.39317740        1.49670102
       99.25680       76.95687384        1.48498974
       99.35649       76.27166270        1.40799276
       99.45618       83.97857135        1.37719190
       99.55588       84.20489921        1.84267448
       99.65557       84.07835601        1.51903311
       99.75526       86.39378053        1.44332906
       99.85496       86.12038801        1.37153926
       99.95465       86.46676429        1.34734753
      100.05434       87.49919919        1.93089990
      100.15404       87.59598022        1.62728749
      100.25373       85.30696600        1.58652534
      100.35342       83.06489659        1.55929542
      100.45312       86.18377811        1.44948509
      100.55281       88.73608230        1.93192615
      100.65250       84.39572593        1.53465425
      100.75220       80.16827168        1.38525734
      100.85189       81.18587595        1.33203865
      100.95158       81.16770124        1.29630305
      101.05128       77.29675662        1.80328766
      101.15097       79.57978818        1.51234718
      101.25066       78.72115243        1.48608889
      101.35036       79.54650916        1.50685313
      101.45005       74.14317687        1.36776307
      101.54974       76.19749306        1.72714318
      101.64944       74.37950824        1.39214061
      101.74913       73.67900580        1.30547361
      101.84882       75.31302620        1.28486228
      101.94852       74.37906087        1.34496987
      102.04821       75.55049499        1.63274326
      102.14791       78.63517108        1.50138150
      102.24760       77.01976246        1.47324817
      102.34729       78.68522742        1.48310161
      102.44699       80.90891381        1.53018143
      102.54668       78.54742785        1.58190944
      102.64637       80.18704365        1.42759243
      102.74607       80.79477604        1.36476518
      102.84576       82.94379036        1.35664168
      102.94545       84.63233956        1.56089021
      103.04515       82.02741617        1.62661847
      103.14484       83.07276413        1.52946892
      103.24453       84.15535080        1.51571069
      103.34423       83.14681556        1.49435226
      103.44392       82.20086769        1.60943928
      103.54361       85.40841622        1.59387579
      103.64331       86.36182899        1.45897635
      103.74300       85.27910944        1.38286324
      103.84269       86.28414582        1.36695769
      103.94239       84.41378967        1.62469248
      104.04208       82.55958260        1.55432582
      104.14177       81.60925375        1.50344184
      104.24147       83.89604265        1.52370800
      104.34116       84.11556698        1.53518429
      104.44085       81.47409025        1.71584271
      104.54055       84.07516531        1.57825412
      104.64024       79.40317510        1.44150425
      104.73993       74.19570342        1.32945965
      104.83963       72.42231478        1.26537109
      104.93932       73.68390803        1.54737627
      105.03901       70.43449858        1.42533623
      105.13871       70.80052803        1.37600538
      105.23840       71.64200219        1.38340453
      105.33809       71.73501322        1.39247859
      105.43779       71.66918115        1.61945868
      105.53748       67.37821021        1.40795353
      105.63717       68.41566154        1.30050003
      105.73687       61.80344338        1.17606290
      105.83656       63.64011122        1.16296106
      105.93626       59.26277874        1.42195481
      106.03595       60.25954903        1.29959418
      106.13564       58.57821310        1.23835881
      106.23534       58.38557173        1.25153677
      106.33503       57.52331966        1.25477245
      106.43472       55.79266161        1.46085308
      106.53442       56.42131984        1.27782354
      106.63411       53.68935813        1.13221571
      106.73380       53.25028306        1.07467010
      106.83350       55.76909986        1.08346992
      106.93319       59.26000429        1.44799127
      107.03288       56.55326746        1.25356220
      107.13258       53.98022504        1.18864602
      107.23227       57.83529346        1.24838467
      107.33196       55.18740207        1.21601148
      107.43166       58.95478377        1.51033895
      107.53135       58.52696459        1.29836187
      107.63104       57.76851401        1.17452172
      107.73074       59.52460690        1.14391896
      107.83043       59.91214638        1.13314538
      107.93012       61.23069774        1.51547819
      108.02982       63.39502874        1.34977731
      108.12951       63.41557166        1.28379232
      108.22920       60.82749727        1.23704926
      108.32890       65.20799230        1.26880281
      108.42859       66.52545932        1.62656961
      108.52828       67.81548336        1.39311147
      108.62798       65.54820906        1.24181695
      108.72767       67.09159906        1.20595480
      108.82736       67.52826876        1.23655081
      108.92706       64.40353457        1.52924941
      109.02675       61.11231502        1.30305453
      109.12644       62.41124765        1.28530267
      109.22614       66.24864958        1.32544872
      109.32583       65.23783091        1.43321486
      109.42552       67.28931253        1.53547034
      109.52522       66.62360187        1.37839383
      109.62491       62.67017851        1.27141341
      109.72461       62.24683858        1.21141298
      109.82430       59.36534861        1.10500457
      109.92399       61.41544087        1.46141391
      110.02369       59.27268544        1.25715256
      110.12338       61.00851634        1.26719507
      110.22307       58.69131068        1.23349447
      110.32277       59.91691128        1.27273669
      110.42246       60.61729417        1.55655929
      110.52215       55.51781386        1.26145131
      110.62185       58.70267215        1.22262694
      110.72154       55.80452919        1.11202532
      110.82123       55.68547960        1.14722760
      110.92093       54.70936084        1.32621609
      111.02062       57.29913740        1.25400924
      111.12031       56.19535372        1.25109607
      111.22001       56.87242960        1.23506209
      111.31970       56.10116046        1.33122809
      111.41939       58.71557504        1.40937352
      111.51909       58.21461936        1.27334519
      111.61878       59.72390440        1.21502790
      111.71847       59.19878287        1.12544276
      111.81817       62.64157635        1.25666993
      111.91786       68.25304276        1.38072621
      112.01755       65.05359931        1.31607397
      112.11725       68.87148074        1.36458153
      112.21694       72.07741996        1.38986892
      112.31663       72.79942311        1.53925823
      112.41633       73.95533229        1.52416860
      112.51602       78.10135161        1.44258827
      112.61571       78.93836587        1.38351348
      112.71541       79.61992988        1.30945425
      112.81510       85.05413730        1.51782446
      112.91479       87.64462041        1.56964683
      113.01449       90.76987345        1.56441556
      113.11418       88.09986696        1.53593940
      113.21387       90.21419327        1.54730556
      113.31357       90.04535030        1.71678390
      113.41326       93.04810803        1.65869598
      113.51296       90.86317140        1.54170700
      113.61265       89.31258020        1.47476459
      113.71234       90.94060258        1.42151688
      113.81204       89.86250183        1.61879960
      113.91173       90.68893202        1.57588924
      114.01142       90.47863598        1.55819508
      114.11112       85.46511316        1.51333900
      114.21081       88.05726351        1.54736927
      114.31050       87.40344953        1.74821273
      114.41020       90.04535390        1.63982852
      114.50989       88.41538794        1.52110374
      114.60958       87.48055315        1.46414497
      114.70928       87.29085388        1.41059529
      114.80897       86.03032385        1.58821170
      114.90866       88.38874190        1.51852425
      115.00836       90.45409198        1.52909457
      115.10805       88.53085053        1.52088836
      115.20774       88.62821588        1.54476292
      115.30744       88.97068824        1.77710185
      115.40713       88.15500698        1.60219183
      115.50682       91.24597198        1.53905010
      115.60652       90.46756241        1.47691168
      115.70621       87.55274690        1.39622133
      115.80590       91.84961336        1.66855163
      115.90560       93.05967161        1.52230795
      116.00529       93.21434371        1.54058285
      116.10498       96.72382816        1.58590913
      116.20468       98.54046911        1.63758972
      116.30437       98.45532001        1.95125784
      116.40406      103.17538578        1.74001242
      116.50376       99.78935023        1.61690328
      116.60345      104.95285345        1.59204277
      116.70314      110.35896560        1.58330630
      116.80284      113.59556424        1.90887785
      116.90253      115.33952129        1.73036803
      117.00222      119.81803623        1.74996826
      117.10192      124.66907819        1.83318072
      117.20161      127.80132318        1.87886820
      117.30131      127.26308344        2.24351178
      117.40100      128.86992663        1.89810066
      117.50069      128.41563759        1.79953025
      117.60039      140.88576250        1.80462740
      117.70008      144.12568865        1.76847133
      117.79977      148.94736237        2.20340158
      117.89947      147.43293596        1.90561730
      117.99916      158.44121423        1.99980905
      118.09885      158.52005306        2.03781665
      118.19855      159.20702112        2.13905716
      118.29824      164.50502261        2.38410456
      118.39793      168.43566944        2.19059260
      118.49763      174.00835282        2.10144382
      118.59732      174.16497297        2.02982470
      118.69701      177.11539208        2.13260942
      118.79671      177.23185511        2.30348738
      118.89640      176.38589992        2.14247319
      118.99609      175.19763349        2.13287021
      119.09579      179.47616827        2.18424640
      119.19548      175.42350002        2.35920908
      119.29517      179.16355353        2.47735286
      119.39487      177.28517734        2.26522523
      119.49456      177.06945958        2.13335759
      119.59425      170.83793836        2.03460456
      119.69395      169.27781986        2.13658075
      119.79364      164.24024367        2.12653791
      119.89333      165.29619017        2.06478694
      119.99303      159.57566518        1.98037943
      120.09272      155.08757920        1.99651303
      120.19241      152.11154180        2.22225327
      120.29211      144.14404117        2.14061339
      120.39180      139.95934384        2.01208068
      120.49149      138.14875360        1.85907360
      120.59119      130.31169534        1.75202422
      120.69088      130.64664426        1.88850829
      120.79057      124.33542655        1.80237813
      120.89027      123.05604212        1.76031004
      120.98996      118.51174111        1.71394959
      121.08966      120.72934687        1.74299798
      121.18935      121.71299985        2.00611959
      121.28904      119.50293024        1.93727984
      121.38874      116.23438305        1.80654214
      121.48843      116.72539184        1.70992408
      121.58812      115.86820418        1.62478830
      121.68782      119.83107462        1.83076755
      121.78751      114.25531675        1.70314072
      121.88720      112.99585016        1.67199768
      121.98690      112.43904850        1.68033749
      122.08659      113.37558811        1.72116791
      122.18628      105.96851943        1.92982975
      122.28598      109.45697166        1.84464684
      122.38567      107.55525938        1.75114980
      122.48536      106.20491203        1.64596145
      122.58506      108.22504176        1.57376707
      122.68475      104.33428238        1.75077262
      122.78444      107.14565721        1.67077360
      122.88414      102.90132962        1.62320608
      122.98383      102.13189891        1.65021613
      123.08352      102.36930509        1.63801941
      123.18322      103.74965163        1.92337994
      123.28291      103.25787148        1.74388070
      123.38260      102.64665041        1.67845523
      123.48230      102.48376954        1.61642304
      123.58199      101.05725600        1.50020022
      123.68168      100.33985826        1.70575447
      123.78138      100.39975071        1.53940188
      123.88107       94.01975425        1.45491829
      123.98076       91.79570305        1.46408626
      124.08046       89.44295772        1.42985657
      124.18015       92.51696258        1.64615378
      124.27984       89.85289922        1.45332032
      124.37954       86.99197626        1.34925418
      124.47923       82.13351284        1.27968325
      124.57892       79.97805754        1.34526083
