        5.04651       54.91961745        2.52948180
        5.14621       56.34629210        2.46937818
        5.24590       50.89827742        2.31286508
        5.34559       57.18964700        2.24905891
        5.44529       55.49142023        2.41002607
        5.54498       54.42749038        2.00765737
        5.64467       54.46966116        1.99088341
        5.74437       51.43764953        1.74622522
        5.84406       50.49264910        1.75080882
        5.94375       49.89881738        1.73811378
        6.04345       51.79272602        1.72077052
        6.14314       48.70135206        1.52764860
        6.24283       48.45498288        1.57406677
        6.34253       48.81833953        1.50697305
        6.44222       50.20025272        1.60916853
        6.54191       48.52886864        1.49875935
        6.64161       51.03138000        1.45610891
        6.74130       49.22848041        1.43584167
        6.84099       46.82682491        1.39012295
        6.94069       51.87651475        1.48545403
        7.04038       50.59636163        1.35409646
        7.14007       47.88350049        1.31443802
        7.23977       49.10306224        1.30785573
        7.33946       50.04199252        1.34055511
        7.43915       49.92055147        1.32145051
        7.53885       47.38323886        1.26356332
        7.63854       48.56715915        1.22273087
        7.73823       49.85303381        1.28639007
        7.83793       49.50305055        1.24046207
        7.93762       47.83942806        1.27197727
        8.03732       50.24196036        1.16913501
        8.13701       51.42170580        1.17749156
        8.23670       50.58987524        1.18437427
        8.33640       47.50860356        1.14793022
        8.43609       46.63369886        1.18897509
        8.53578       47.68035225        1.11986114
        8.63548       48.58501736        1.11747774
        8.73517       48.24109110        1.09227929
        8.83486       47.00414914        1.08076351
        8.93456       47.60215115        1.08205340
        9.03425       48.29531678        1.05801340
        9.13394       48.70116099        1.06446501
        9.23364       44.97548851        1.03773889
        9.33333       48.03566030        1.09441554
        9.43302       48.81915186        1.10374567
        9.53272       48.33950915        1.06118526
        9.63241       48.39150203        1.09176861
        9.73210       48.77353747        1.09388740
        9.83180       47.24790285        1.12179424
        9.93149       49.57964179        1.14100979
       10.03118       47.58122889        1.07544031
       10.13088       48.99393210        1.06519206
       10.23057       48.98818242        1.11540736
       10.33026       50.64815970        1.17240202
       10.42996       47.47340331        1.11938589
       10.52965       50.74415331        1.12092396
       10.62934       48.19078083        1.09488449
       10.72904       48.56195011        1.11536227
       10.82873       49.55327867        1.12105058
       10.92842       48.23130420        1.12448219
       11.02812       48.45763992        1.07382579
       11.12781       51.81952038        1.15041882
       11.22750       50.40694330        1.14587771
       11.32720       50.78778890        1.18115171
       11.42689       51.47126533        1.14784578
       11.52658       52.71970526        1.14788861
       11.62628       53.06904577        1.16419603
       11.72597       56.23685860        1.22403004
       11.82567       58.05858798        1.27836414
       11.92536       60.92592226        1.22562629
       12.02505       66.52793624        1.28695050
       12.12475       72.40244521        1.34162381
       12.22444       79.17855068        1.48804365
       12.32413       90.57601986        1.61637562
       12.42383       97.51810006        1.59216357
       12.52352      111.78054094        1.69467864
       12.62321      130.01853316        1.88034240
       12.72291      153.40362449        1.98845952
       12.82260      172.09678082        2.29000523
       12.92229      197.63815619        2.22986299
       13.02199      225.76292874        2.36539364
       13.12168      246.51157159        2.51484084
       13.22137      281.53316527        2.77609993
       13.32107      308.07450406        2.99812008
       13.42076      339.40019856        3.03031779
       13.52045      354.47039909        3.13403440
       13.62015      359.25917318        3.05781286
       13.71984      344.87091374        3.12179953
       13.81953      318.20895165        3.04889115
       13.91923      280.27566673        2.68705605
       14.01892      224.07556862        2.33811249
       14.11861      168.56515533        2.11462979
       14.21831      132.77045286        1.87806876
       14.31800      108.39431282        1.78616076
       14.41769       84.35896601        1.51698923
       14.51739       67.39260109        1.32243708
       14.61708       62.96301095        1.28147962
       14.71677       56.95115844        1.23850690
       14.81647       50.52183400        1.22177562
       14.91616       51.64731655        1.13607604
       15.01585       48.74970177        1.12353747
       15.11555       49.84960129        1.14935544
       15.21524       47.41800821        1.15523608
       15.31493       45.76453036        1.16221652
       15.41463       47.53042565        1.14686570
       15.51432       46.92307093        1.10418353
       15.61402       47.95337479        1.14454737
       15.71371       49.78779841        1.15829784
       15.81340       45.38541405        1.15028462
       15.91310       47.61429562        1.14488696
       16.01279       46.49163307        1.08317464
       16.11248       46.39721964        1.11112840
       16.21218       47.68198626        1.15767478
       16.31187       46.81369094        1.14985533
       16.41156       47.22650619        1.13342536
       16.51126       46.97759366        1.14953829
       16.61095       49.28906198        1.13545153
       16.71064       50.10130151        1.18099568
       16.81034       51.89474802        1.20566092
       16.91003       52.41410260        1.17675631
       17.00972       54.99758454        1.15729045
       17.10942       59.84283229        1.27614178
       17.20911       61.85470194        1.30895000
       17.30880       62.02267105        1.32209022
       17.40850       66.76731792        1.37160298
       17.50819       72.28790908        1.38604319
       17.60788       71.76271585        1.42383847
       17.70758       77.89816951        1.48988868
       17.80727       72.22126496        1.45199582
       17.90696       72.34913172        1.35879709
       18.00666       66.17654319        1.32208209
       18.10635       64.01053852        1.26465639
       18.20604       62.53327460        1.37120135
       18.30574       56.48764335        1.24181409
       18.40543       58.23688308        1.22977839
       18.50512       53.77766099        1.21886617
       18.60482       53.12913318        1.19246694
       18.70451       52.89286104        1.25733630
       18.80420       53.28346774        1.18554845
       18.90390       53.24260868        1.17244112
       19.00359       50.35441562        1.11028021
       19.10328       47.98895935        1.14664579
       19.20298       46.89877385        1.16877362
       19.30267       47.50962148        1.12970709
       19.40237       47.36395690        1.11520208
       19.50206       47.32850179        1.14281098
       19.60175       43.16266119        1.07896210
       19.70145       45.05193672        1.15596471
       19.80114       45.11438164        1.09712512
       19.90083       45.39606865        1.06336330
       20.00053       48.32936074        1.11676364
       20.10022       47.97650629        1.12092948
       20.19991       49.29461430        1.21480554
       20.29961       48.92626837        1.14671132
       20.39930       48.71441976        1.17878317
       20.49899       49.67951884        1.16976147
       20.59869       47.94842888        1.17014092
       20.69838       51.98928251        1.26356164
       20.79807       55.34587406        1.24362841
       20.89777       52.16812331        1.17995146
       20.99746       57.89487099        1.25564200
       21.09715       57.54592387        1.31858342
       21.19685       58.85681778        1.32662813
       21.29654       60.65787918        1.31385263
       21.39623       57.28517661        1.27671941
       21.49593       56.08823394        1.24520213
       21.59562       53.29646243        1.24292392
       21.69531       49.91215462        1.25093689
       21.79501       49.46589788        1.13921291
       21.89470       46.84065338        1.08352610
       21.99439       44.67906645        1.10301238
       22.09409       45.61584282        1.11731423
       22.19378       45.34683743        1.18306230
       22.29347       44.38889946        1.09010155
       22.39317       45.66063600        1.13429921
       22.49286       46.87717440        1.14844097
       22.59255       47.10879055        1.16482105
       22.69225       48.26739529        1.24254345
       22.79194       50.34497643        1.13976633
       22.89163       52.50450935        1.14128360
       22.99133       54.81719486        1.19858391
       23.09102       58.77297386        1.28909096
       23.19072       61.71697226        1.32423523
       23.29041       64.51511960        1.33719571
       23.39010       68.12940753        1.38871370
       23.48980       65.54818187        1.36697400
       23.58949       62.34972374        1.35093237
       23.68918       58.76631039        1.37899139
       23.78888       54.22444385        1.18032204
       23.88857       51.85238504        1.16922303
       23.98826       46.60740968        1.13306434
       24.08796       48.12919549        1.12904009
       24.18765       46.42690560        1.18811659
       24.28734       44.12278641        1.10268659
       24.38704       44.60834156        1.12728742
       24.48673       44.97634179        1.12789434
       24.58642       43.34814433        1.14386323
       24.68612       44.20390123        1.15360737
       24.78581       43.28878239        1.05233121
       24.88550       44.48344474        1.06636315
       24.98520       45.73427033        1.12129668
       25.08489       45.05026045        1.13507363
       25.18458       46.66691443        1.17959524
       25.28428       47.95321698        1.15253283
       25.38397       49.29646561        1.16294206
       25.48366       52.06723381        1.20244460
       25.58336       54.82824515        1.28622917
       25.68305       61.06919028        1.33163155
       25.78274       69.33361211        1.33945476
       25.88244       83.80163894        1.51031162
       25.98213      105.93164867        1.71280687
       26.08182      130.82863296        1.95440378
       26.18152      155.82530975        2.18553466
       26.28121      180.97797550        2.22891021
       26.38090      195.33237620        2.33564566
       26.48060      202.49634107        2.44420895
       26.58029      186.93655888        2.44906519
       26.67998      167.08766818        2.18615187
       26.77968      139.63716438        1.97388043
       26.87937      111.99961609        1.74166693
       26.97907       90.74906646        1.55409824
       27.07876       77.59633265        1.54695451
       27.17845       75.78330361        1.46095387
       27.27815       78.42219046        1.45147252
       27.37784       82.88963903        1.55058921
       27.47753       86.43315749        1.56017109
       27.57723       87.73457657        1.64669256
       27.67692       87.12344079        1.60168582
       27.77661       78.07410590        1.44678714
       27.87631       68.43566879        1.33169265
       27.97600       62.05090191        1.29644774
       28.07569       55.90774183        1.30223210
       28.17539       51.46901000        1.19600186
       28.27508       49.95705069        1.17877702
       28.37477       49.65095730        1.20311986
       28.47447       50.46951165        1.20355781
       28.57416       51.51399897        1.31463469
       28.67385       49.85280046        1.15052341
       28.77355       53.69602527        1.17265290
       28.87324       55.09904136        1.21956471
       28.97293       57.17216789        1.24528208
       29.07263       58.62671050        1.37464823
       29.17232       59.59911101        1.26489107
       29.27201       55.85920095        1.24702713
       29.37171       52.68632500        1.24573163
       29.47140       52.42622559        1.22830827
       29.57109       53.10999795        1.31100383
       29.67079       47.01322679        1.12269417
       29.77048       48.21111415        1.13959337
       29.87017       46.09935923        1.09240240
       29.96987       45.56820817        1.13877571
       30.06956       45.30046974        1.17138742
       30.16925       47.06913894        1.12432794
       30.26895       48.10042708        1.14096146
       30.36864       48.40367380        1.16326857
       30.46833       50.45725724        1.19980842
       30.56803       53.03438697        1.29947232
       30.66772       54.70599978        1.22822663
       30.76742       60.38501558        1.26481013
       30.86711       59.74542463        1.28312110
       30.96680       64.55112493        1.34165459
       31.06650       61.58664815        1.37397018
       31.16619       62.06297165        1.29687450
       31.26588       59.85649508        1.26587159
       31.36558       56.31371210        1.24376828
       31.46527       57.34297722        1.30597797
       31.56496       59.36640840        1.35025144
       31.66466       61.93863950        1.28990780
       31.76435       71.29709473        1.38290520
       31.86404       79.85474941        1.44465921
       31.96374       85.65412637        1.53113513
       32.06343       88.18935939        1.60787819
       32.16312       86.36803939        1.49529139
       32.26282       83.18275002        1.50320883
       32.36251       75.27480246        1.48685781
       32.46220       72.62003039        1.48653820
       32.56190       68.55086795        1.46975357
       32.66159       65.57352594        1.36498456
       32.76128       62.34552397        1.30096573
       32.86098       63.70481019        1.33488830
       32.96067       59.80089373        1.30936558
       33.06036       57.89386012        1.31173985
       33.16006       57.59418842        1.23212731
       33.25975       57.43041029        1.27033841
       33.35944       55.91449201        1.26018645
       33.45914       57.64747545        1.32831734
       33.55883       59.46270109        1.35231056
       33.65852       61.40860391        1.28155491
       33.75822       67.08505966        1.33737041
       33.85791       72.44219622        1.39556428
       33.95760       80.34727115        1.51340803
       34.05730       90.77122679        1.59332280
       34.15699      107.77502412        1.70925184
       34.25668      119.96081649        1.79727329
       34.35638      152.39592377        2.07944591
       34.45607      184.00076308        2.40728668
       34.55577      231.17951258        2.57280037
       34.65546      295.41666866        2.79100837
       34.75515      370.75862986        3.18854302
       34.85485      431.66529376        3.41619219
       34.95454      446.22271224        3.58204816
       35.05423      437.46898419        3.66821826
       35.15393      390.44163642        3.25291360
       35.25362      310.50864499        2.94343680
       35.35331      240.44393896        2.65603108
       35.45301      184.53895425        2.42692176
       35.55270      140.03296326        2.05744152
       35.65239      108.87501830        1.75140313
       35.75209       85.11285519        1.53642810
       35.85178       77.34480932        1.46245846
       35.95147       72.70725309        1.45117088
       36.05117       68.46690938        1.37908266
       36.15086       66.25773041        1.30440101
       36.25055       62.89922090        1.32767432
       36.35025       58.12369706        1.30107199
       36.44994       57.30238886        1.31764325
       36.54963       56.92048350        1.26064880
       36.64933       55.52908651        1.22650788
       36.74902       54.62362928        1.22914077
       36.84871       53.74439839        1.21037577
       36.94841       53.09788650        1.30102280
       37.04810       50.30443915        1.11648094
       37.14779       51.59460852        1.15394603
       37.24749       50.04257327        1.16800684
       37.34718       48.84721994        1.18335997
       37.44687       48.02133395        1.26033427
       37.54657       48.00964212        1.15046202
       37.64626       47.41369625        1.13889172
       37.74595       46.29110035        1.10768965
       37.84565       50.90061980        1.22920420
       37.94534       47.73322693        1.21252495
       38.04503       47.35872403        1.09158947
       38.14473       46.61976872        1.09362490
       38.24442       47.66671899        1.12608871
       38.34412       50.10647481        1.20716716
       38.44381       47.49280189        1.27068362
       38.54350       50.19025833        1.16453554
       38.64320       48.41080630        1.14016751
       38.74289       52.39192367        1.20180417
       38.84258       51.31849184        1.19225994
       38.94228       54.71649337        1.29141436
       39.04197       61.06420542        1.23043846
       39.14166       65.88927803        1.32978160
       39.24136       69.57221873        1.36290945
       39.34105       69.81905522        1.41293012
       39.44074       73.20934634        1.57833054
       39.54044       70.75790682        1.38728963
       39.64013       69.63885326        1.37202644
       39.73982       67.48584771        1.35603473
       39.83952       64.63087937        1.31795822
       39.93921       63.12019253        1.38096763
       40.03890       62.12522224        1.25404766
       40.13860       55.11617377        1.17937539
       40.23829       57.26670799        1.24478847
       40.33798       57.83054507        1.28992109
       40.43768       58.64676646        1.35913857
       40.53737       56.47809101        1.23781809
       40.63706       56.54722073        1.26458365
       40.73676       60.65011288        1.30776587
       40.83645       60.85814646        1.32095165
       40.93614       62.03051862        1.35600982
       41.03584       68.01319584        1.33648189
       41.13553       76.09075853        1.41549800
       41.23522       93.85847511        1.61098566
       41.33492      113.81058495        1.85774004
       41.43461      138.53623684        2.11630092
       41.53430      156.22569622        2.10494172
       41.63400      186.59268957        2.35199319
       41.73369      204.31398984        2.40803049
       41.83338      208.80395386        2.49939370
       41.93308      218.81555341        2.53662421
       42.03277      218.79930301        2.31818095
       42.13247      238.44279941        2.54412870
       42.23216      288.67783875        2.80644315
       42.33185      351.96287374        3.32857990
       42.43155      421.40855770        3.59082956
       42.53124      486.77004032        3.73840294
       42.63093      536.36514966        3.93302531
       42.73063      557.49228288        4.02847464
       42.83032      539.66755024        4.03280346
       42.93001      499.08922129        3.73124708
       43.02971      423.17393688        3.24359931
       43.12940      328.50006982        2.91294376
       43.22909      250.16036556        2.66998075
       43.32879      188.58906023        2.44063982
       43.42848      141.84763943        2.06901905
       43.52817      108.61532915        1.73151025
       43.62787       83.56409203        1.51303382
       43.72756       73.53204577        1.45270580
       43.82725       67.56228916        1.45387063
       43.92695       60.11550310        1.24335792
       44.02664       58.33203985        1.21887891
       44.12633       59.30678269        1.27489115
       44.22603       55.01203144        1.27784729
       44.32572       56.25607013        1.36200518
       44.42541       56.83762109        1.30710824
       44.52511       52.56440748        1.22301824
       44.62480       57.12224393        1.29316948
       44.72449       59.34814044        1.27746321
       44.82419       60.34547160        1.44547174
       44.92388       65.54498712        1.25657677
       45.02357       74.93329424        1.35488272
       45.12327       86.29734060        1.49797206
       45.22296      102.40026661        1.67521083
       45.32265      126.31887603        2.05914384
       45.42235      145.70439746        2.01409486
       45.52204      176.91997316        2.19825843
       45.62174      202.83798548        2.39739179
       45.72143      232.23522256        2.56664800
       45.82112      243.21590072        2.87581418
       45.92082      253.65514562        2.49406073
       46.02051      247.35167776        2.51501584
       46.12020      236.61346391        2.46728749
       46.21990      217.25205014        2.48333192
       46.31959      194.71181102        2.53759668
       46.41928      172.20106100        2.20330271
       46.51898      141.37697397        2.00628049
       46.61867      116.49800453        1.81124015
       46.71836       88.51729956        1.61832161
       46.81806       77.50781454        1.56996267
       46.91775       66.96232492        1.27167612
       47.01744       61.42982985        1.24687794
       47.11714       62.80599984        1.28962254
       47.21683       69.76946176        1.39953768
       47.31652       75.65710107        1.59013561
       47.41622       86.59953471        1.60360020
       47.51591      101.78169363        1.74220914
       47.61560      114.68524082        1.83414897
       47.71530      131.70044193        1.98725356
       47.81499      150.04008886        2.17522986
       47.91468      164.47509949        1.99277912
       48.01438      177.19979202        2.06985973
       48.11407      184.59205550        2.19200215
       48.21376      180.08497805        2.26014965
       48.31346      168.43717823        2.26300555
       48.41315      162.17511412        2.06975708
       48.51284      144.51603258        2.01818048
       48.61254      120.86977781        1.83728015
       48.71223      102.22546872        1.71971493
       48.81192       84.21694899        1.55659847
       48.91162       71.83253913        1.28841189
       49.01131       60.43882270        1.22291484
       49.11100       56.04724816        1.21996047
       49.21070       54.09240520        1.25822120
       49.31039       52.91472105        1.28072331
       49.41009       52.35598086        1.20345943
       49.50978       49.37063669        1.19270260
       49.60947       48.73500040        1.19364765
       49.70917       47.88198306        1.22698976
       49.80886       47.61135095        1.19077408
       49.90855       49.12242059        1.10185601
       50.00825       49.26974971        1.12682087
       50.10794       53.09171264        1.19649114
       50.20763       51.80093081        1.23471094
       50.30733       53.86673815        1.31897770
       50.40702       52.81521323        1.22471552
       50.50671       55.37905894        1.25788560
       50.60641       55.67879312        1.26308500
       50.70610       54.22192134        1.28248612
       50.80579       56.64896603        1.29368648
       50.90549       56.16660533        1.16137183
       51.00518       56.97869477        1.18014207
       51.10487       54.05664057        1.18808900
       51.20457       54.00941753        1.26427262
       51.30426       55.05867945        1.26990104
       51.40395       56.01708969        1.22800972
       51.50365       58.28905608        1.26707331
       51.60334       58.94717244        1.29940074
       51.70303       59.07092223        1.38134442
       51.80273       60.91583123        1.28678391
       51.90242       59.77180874        1.19086401
       52.00211       60.09024461        1.19969193
       52.10181       63.52505257        1.27269740
       52.20150       62.38776766        1.38892864
       52.30119       63.19016319        1.34656802
       52.40089       62.23883072        1.31542319
       52.50058       61.61738333        1.33353662
       52.60027       59.83299002        1.33195060
       52.69997       61.27370301        1.47724269
       52.79966       59.88586411        1.22775832
       52.89935       66.31608541        1.24690044
       52.99905       74.35865042        1.34223800
       53.09874       83.91017170        1.47214857
       53.19844       95.24951997        1.79656301
       53.29813      110.13512524        1.71738898
       53.39782      124.11215928        1.88652644
       53.49752      137.56701769        1.99574552
       53.59721      148.76396827        2.07429069
       53.69690      151.66665210        2.29813282
       53.79660      153.94892246        1.93958922
       53.89629      152.28996759        1.90819653
       53.99598      145.10131770        1.90778102
       54.09568      135.47140142        1.92458011
       54.19537      122.37801208        1.99432312
       54.29506      114.49713898        1.77194616
       54.39476      102.80635556        1.69158090
       54.49445       95.87598221        1.63448678
       54.59414       88.92272973        1.59777615
       54.69384       85.40093978        1.67025927
       54.79353       85.59012835        1.43393008
       54.89322       82.92997759        1.40628526
       54.99292       77.53910782        1.39939673
       55.09261       76.81423882        1.44847757
       55.19230       68.55630476        1.46913066
       55.29200       66.07407685        1.34232257
       55.39169       60.44173863        1.32446736
       55.49138       59.23888796        1.30632686
       55.59108       54.84810334        1.29710788
       55.69077       55.21958034        1.33570370
       55.79046       56.76173340        1.18403898
       55.89016       55.51366044        1.16810054
       55.98985       58.47683838        1.20668097
       56.08954       57.71343585        1.23824579
       56.18924       64.04595730        1.40801806
       56.28893       70.49608737        1.35223028
       56.38862       81.03304532        1.50004777
       56.48832       92.77777010        1.63316459
       56.58801      105.80892084        1.79512304
       56.68770      113.50289671        1.91927845
       56.78740      115.61608821        1.65785177
       56.88709      115.33309113        1.67233652
       56.98679      107.25616427        1.61379783
       57.08648       97.17751267        1.62795995
       57.18617       86.37781462        1.58879862
       57.28587       75.87524374        1.39092089
       57.38556       67.14218833        1.39253467
       57.48525       61.21198480        1.35496244
       57.58495       56.06016723        1.32621645
       57.68464       54.88656866        1.32367651
       57.78433       54.03997753        1.14896203
       57.88403       49.69062136        1.11442995
       57.98372       51.14348567        1.14866664
       58.08341       51.54424085        1.24684932
       58.18311       51.84837184        1.27921607
       58.28280       50.80617899        1.19266480
       58.38249       52.60812257        1.26821019
       58.48219       53.27964866        1.30386873
       58.58188       53.71489049        1.32352157
       58.68157       54.15784213        1.30229535
       58.78127       54.26279053        1.14022857
       58.88096       53.46002460        1.11503246
       58.98065       54.61140480        1.16993472
       59.08035       57.74325887        1.28381702
       59.18004       57.71765874        1.30201811
       59.27973       59.31069943        1.24533546
       59.37943       63.87449469        1.33516052
       59.47912       65.19851600        1.40425937
       59.57881       69.05227297        1.51409933
       59.67851       78.55405631        1.50604314
       59.77820       84.59683977        1.43696162
       59.87789       92.57704658        1.49816571
       59.97759      101.89071793        1.64454622
       60.07728      104.24262770        1.80138826
       60.17697      107.57250708        1.74339930
       60.27667      108.88516660        1.70536965
       60.37636      105.68398707        1.71251223
       60.47605      101.27675745        1.74866210
       60.57575       97.00377645        1.87536351
       60.67544       94.56663226        1.59076048
       60.77514       88.20408491        1.46031951
       60.87483       79.25783551        1.35709789
       60.97452       70.86366626        1.35153764
       61.07422       69.97140173        1.50869256
       61.17391       65.74870557        1.26665424
       61.27360       66.39607010        1.31810494
       61.37330       69.66390650        1.40038595
       61.47299       65.97422452        1.42250434
       61.57268       67.31104664        1.63402363
       61.67238       71.12225457        1.36913240
       61.77207       69.47521390        1.31782784
       61.87176       68.05044418        1.28964915
       61.97146       69.11554047        1.34941951
       62.07115       69.95105304        1.53756335
       62.17084       67.24214026        1.32062920
       62.27054       64.09152769        1.34420580
       62.37023       64.04446535        1.39724011
       62.46992       63.27458769        1.43637791
       62.56962       66.71345702        1.65672630
       62.66931       66.74955662        1.33500744
       62.76900       75.71891384        1.38629013
       62.86870       77.53229695        1.37221630
       62.96839       88.74366705        1.51542686
       63.06808       98.68420407        1.77891110
       63.16778      103.48084031        1.61719634
       63.26747      108.92509749        1.71719409
       63.36716      117.69225073        1.85284516
       63.46686      123.86632430        1.95814823
       63.56655      129.89605038        2.13065041
       63.66624      141.07154799        1.88783915
       63.76594      152.17408307        1.90511006
       63.86563      167.48114940        1.99328121
       63.96532      177.99860398        2.15086980
       64.06502      175.58714349        2.28830654
       64.16471      168.17878657        2.07100508
       64.26440      159.85461778        2.10152470
       64.36410      146.82709843        2.05414773
       64.46379      129.92946403        2.04271995
       64.56349      112.92482707        1.93740171
       64.66318      101.60839670        1.60816064
       64.76287       80.52313471        1.41313818
       64.86257       69.43679751        1.30989961
       64.96226       65.32885101        1.33076356
       65.06195       60.24238367        1.38161567
       65.16165       53.54275249        1.17472443
       65.26134       55.18306832        1.22057791
       65.36103       54.92811110        1.27069098
       65.46073       54.26287228        1.30443821
       65.56042       56.45682088        1.38978237
       65.66011       59.19848902        1.24102694
       65.75981       56.52926775        1.20048027
       65.85950       58.64090556        1.21497834
       65.95919       63.42168364        1.32286565
       66.05889       67.92165936        1.41621922
       66.15858       70.54234252        1.37252779
       66.25827       81.02590954        1.52172282
       66.35797       88.62590886        1.65816619
       66.45766      102.75828837        1.89779647
       66.55735      115.17722378        2.00920302
       66.65705      128.67969508        1.88433044
       66.75674      138.42813555        1.90474000
       66.85643      153.16400016        1.98142064
       66.95613      166.16210963        2.14650457
       67.05582      171.41053114        2.19675888
       67.15551      169.93673331        2.08135450
       67.25521      162.74874372        2.13757930
       67.35490      149.29555858        2.15465299
       67.45459      132.48646684        2.13985319
       67.55429      117.85476468        1.93317883
       67.65398      103.28590939        1.62178491
       67.75367       88.46580016        1.48817659
       67.85337       78.71022669        1.42067566
       67.95306       75.21709386        1.48493059
       68.05275       75.69302371        1.41053260
       68.15245       83.43478000        1.46849206
       68.25214       89.95248567        1.61860595
       68.35184       97.62134700        1.75761435
       68.45153      106.22596520        2.01878033
       68.55122      109.36880205        1.76467334
       68.65092      116.75183485        1.69967925
       68.75061      128.46386423        1.80187459
       68.85030      127.99773801        1.83313544
       68.95000      127.37017338        2.07320683
       69.04969      121.88831888        1.71252293
       69.14938      111.42846575        1.68328513
       69.24908      100.23831219        1.70456065
       69.34877       89.65790721        1.66694584
       69.44846       83.38039998        1.86440648
       69.54816       71.76485635        1.34817749
       69.64785       64.26558460        1.25761998
       69.74754       58.75546153        1.21442756
       69.84724       54.32591253        1.19805565
       69.94693       52.52359552        1.32939693
       70.04662       50.98805755        1.07707065
       70.14632       48.27683206        1.08971986
       70.24601       47.32762060        1.15523253
       70.34570       45.92441981        1.20413997
       70.44540       48.06408367        1.45154520
       70.54509       48.69383340        1.14361811
       70.64478       49.43195774        1.15064440
       70.74448       50.25826055        1.17864558
       70.84417       50.92800670        1.23121255
       70.94386       50.14384823        1.34104383
       71.04356       51.11081706        1.12039691
       71.14325       52.20869568        1.17677429
       71.24294       53.15292130        1.24934395
       71.34264       55.60172076        1.35502298
       71.44233       55.25187278        1.50727638
       71.54202       57.00687810        1.24652487
       71.64172       52.83892863        1.16721423
       71.74141       53.94356043        1.15799579
       71.84110       51.38747525        1.16985806
       71.94080       49.66361117        1.25313974
       72.04049       52.18860766        1.08738428
       72.14019       52.66519387        1.13813083
       72.23988       52.38284204        1.18763071
       72.33957       54.15563562        1.34893617
       72.43927       51.58020098        1.44903908
       72.53896       53.35870371        1.18175036
       72.63865       54.66436974        1.16920811
       72.73835       53.77035562        1.13406854
       72.83804       57.26499789        1.23598897
       72.93773       58.51179978        1.32716533
       73.03743       58.83457326        1.15517898
       73.13712       65.74085721        1.28805267
       73.23681       62.96026388        1.32415906
       73.33651       63.15767249        1.45933423
       73.43620       63.38746530        1.58355176
       73.53589       62.75269355        1.27099374
       73.63559       65.53073494        1.27855166
       73.73528       65.31968711        1.27068189
       73.83497       65.65597748        1.35061133
       73.93467       66.23831753        1.42852005
       74.03436       65.74885534        1.25953460
       74.13405       64.27052587        1.29817102
       74.23375       60.53510496        1.31217509
       74.33344       62.19867987        1.46432432
       74.43313       62.38798319        1.52179349
       74.53283       61.86740155        1.28754578
       74.63252       66.71726004        1.32759438
       74.73221       67.82859490        1.33210565
       74.83191       72.61900455        1.46237086
       74.93160       78.31752685        1.53605923
       75.03129       77.91510332        1.36203251
       75.13099       84.09123037        1.46590214
       75.23068       91.98648634        1.59957123
       75.33037       98.86753742        1.82317009
       75.43007      109.14714229        1.94382418
       75.52976      111.40659833        1.70575379
       75.62945      122.22287203        1.78558081
       75.72915      130.90017173        1.84094971
       75.82884      141.54437052        2.06172287
       75.92854      137.81893028        1.90944882
       76.02823      144.87123717        1.83640715
       76.12792      151.87508316        1.96568006
       76.22762      154.75186466        2.09362980
       76.32731      151.84819266        2.34198027
       76.42700      149.56910686        2.19358668
       76.52670      142.57588319        1.97535619
       76.62639      136.89124330        1.91080081
       76.72608      124.55384808        1.79174159
       76.82578      120.42947014        2.02988677
       76.92547      116.25089563        1.59723769
       77.02516      117.05868215        1.66126097
       77.12486      119.46833399        1.76313049
       77.22455      121.49757547        1.89330945
       77.32424      133.63928013        2.44041245
       77.42394      132.14800272        1.93755229
       77.52363      134.18495549        1.88678448
       77.62332      140.74855001        1.92392280
       77.72302      145.38556597        1.96003402
       77.82271      152.05950162        2.35129434
       77.92240      153.51016021        1.80912244
       78.02210      151.17634049        1.93705991
       78.12179      146.68203677        2.03760246
       78.22148      141.19767222        2.11367871
       78.32118      135.74598640        2.40441870
       78.42087      130.81880938        1.85741903
       78.52056      123.22854065        1.86123345
       78.62026      111.96927357        1.75964973
       78.71995      104.42495082        1.70468034
       78.81964       93.68134725        1.80290855
       78.91934       87.78014138        1.35208176
       79.01903       78.21961613        1.39890924
       79.11872       70.89649392        1.38573298
       79.21842       66.10435090        1.42721897
       79.31811       66.41234936        1.61142300
       79.41780       60.93767516        1.25192010
       79.51750       64.00931572        1.30389518
       79.61719       62.78957638        1.29515696
       79.71689       64.32506330        1.36109516
       79.81658       61.18888422        1.40705592
       79.91627       62.20880917        1.20263456
       80.01597       63.78014627        1.25171677
       80.11566       62.85071491        1.29888701
       80.21535       64.18174705        1.40313925
       80.31505       65.16388767        1.68076699
       80.41474       66.17517109        1.30155671
       80.51443       65.86683419        1.29281819
       80.61413       71.22001209        1.38916280
       80.71382       79.09106856        1.51476479
       80.81351       82.38720386        1.73737590
       80.91321       86.97156014        1.31648459
       81.01290      102.43919626        1.54302316
       81.11259      119.35771960        1.79844623
       81.21229      134.10333652        2.06252395
       81.31198      145.83555358        2.39972909
       81.41167      170.49040401        2.03267899
       81.51137      193.02162673        2.22597148
       81.61106      210.66280736        2.42897838
       81.71075      230.90451232        2.63314848
       81.81045      239.07250235        2.83875755
       81.91014      260.71793172        2.28052723
       82.00983      278.31944312        2.51936338
       82.10953      291.31854975        2.88422063
       82.20922      299.47862468        3.25280060
       82.30891      306.76574615        3.45264842
       82.40861      303.75336480        2.79349968
       82.50830      301.69375963        2.77661819
       82.60799      302.16223000        2.99338124
       82.70769      296.90072646        3.22853985
       82.80738      291.30919961        3.05499726
       82.90707      287.03144135        2.46225542
       83.00677      274.32516407        2.56405312
       83.10646      267.49173963        2.97898485
       83.20615      254.65407096        3.23449691
       83.30585      239.92780399        2.97336479
       83.40554      218.56804977        2.35837326
       83.50524      197.49121678        2.18656347
       83.60493      184.29137831        2.32662169
       83.70462      161.14811559        2.45194781
       83.80432      150.48308250        2.07041354
       83.90401      126.18483734        1.58953100
       84.00370      102.57487830        1.49393329
       84.10340       89.53534724        1.66743828
       84.20309       81.51913033        1.93123472
       84.30278       77.30679750        1.52939926
       84.40248       73.27757387        1.31404092
       84.50217       65.10104192        1.21476412
       84.60186       65.03120824        1.37286686
       84.70156       65.59817469        1.80436923
       84.80125       63.01806403        1.23116949
       84.90094       62.71323682        1.10329179
       85.00064       62.93410411        1.13872863
       85.10033       64.49906294        1.36438509
       85.20002       61.31283373        2.28127197
       85.29972       66.92228149        1.25747660
       85.39941       66.39157272        1.27693812
       85.49910       68.24555065        1.25909008
       85.59880       68.76097453        1.42116370
       85.69849       73.58448522        2.63990363
       85.79818       65.71318851        1.17584503
       85.89788       63.55607674        1.12866959
       85.99757       64.65854502        1.16977127
       86.09726       63.06437175        1.32633573
       86.19696       67.06465584        2.62735020
       86.29665       64.49875969        1.21920918
       86.39634       62.90558037        1.22488506
       86.49604       61.91433601        1.19677677
       86.59573       57.18341260        1.22526018
       86.69542       60.04272610        2.62530078
       86.79512       55.60899130        1.04861494
       86.89481       54.87717497        1.02698656
       86.99451       53.10637067        1.04713458
       87.09420       55.00587056        1.18862112
       87.19389       55.90419028        2.83856932
       87.29359       51.53901596        1.10440030
       87.39328       52.14097531        1.12586295
       87.49297       49.13646491        1.06088734
       87.59267       50.12377509        1.09260066
       87.69236       47.32468312        3.17647046
       87.79205       49.04189424        1.00736271
       87.89175       51.07561141        1.01983403
       87.99144       50.60834437        1.05779169
       88.09113       50.65293214        1.12480246
       88.19083       47.57098033        5.76760738
       88.29052       49.27414260        1.11632470
       88.39021       48.19016226        1.11129367
       88.48991       49.91009857        1.08545885
       88.58960       50.18431329        1.05406692
       88.68929       60.55795509        8.97311163
       88.78899       50.26723147        1.01826509
       88.88868       49.03261467        0.98367531
       88.98837       51.87377434        1.05244284
       89.08807       49.95050180        1.05774605
       89.18776       48.44126381        8.47494392
       89.28745       49.84450690        1.07353639
       89.38715       53.20144760        1.12062207
       89.48684       55.56305876        1.12081282
       89.58653       57.60116977        1.11807810
       89.68623       51.84962877        8.59787189
       89.78592       58.09948248        1.09111843
       89.88561       63.47321393        1.11828206
       89.98531       65.99129557        1.16930083
       90.08500       71.15319229        1.25948102
       90.18469       86.46954823       11.58592653
       90.28439       77.93374204        1.34650819
       90.38408       79.25058204        1.38066194
       90.48377       87.84735604        1.42671843
       90.58347       91.92012364        1.43664449
       90.68316      101.17116108       11.74415367
       90.78286       93.39075788        1.38621353
       90.88255       95.05750343        1.36088936
       90.98224       97.21284412        1.42399453
       91.08194      101.48529743        1.50290866
       91.18163      110.64010689       12.52602633
       91.28132       98.61523301        1.52519915
       91.38102      101.18889875        1.58611786
       91.48071       94.76379881        1.49693541
       91.58040       89.83628357        1.40934355
       91.68010       90.41824297       10.69685203
       91.77979       86.72104476        1.32911377
       91.87948       77.93251253        1.24013210
       91.97918       78.37535226        1.29143848
       92.07887       76.63488658        1.33016984
       92.17856       76.80491547       10.12507632
       92.27826       75.44477002        1.36303008
       92.37795       74.23125613        1.38403802
       92.47764       72.23999711        1.29603528
       92.57734       78.37077342        1.30983395
       92.67703       78.26997386        8.49696760
       92.77672       77.73674672        1.25726893
       92.87642       82.92189832        1.27395717
       92.97611       88.09334967        1.37136695
       93.07580       88.17126775        1.56586069
       93.17550       89.74460576        2.97075377
       93.27519       92.86954796        1.48148697
       93.37488       95.37247155        1.45951516
       93.47458       99.16266214        1.50479625
       93.57427       98.84886145        1.73695788
       93.67396       99.17171877        2.35120757
       93.77366       99.15048412        1.45637453
       93.87335      100.88741778        1.40333997
       93.97304       96.43549585        1.42960681
       94.07274       91.99131717        1.81250107
       94.17243       93.98374920        2.09052232
       94.27212       90.16624687        1.52489995
       94.37182       88.38717723        1.47133911
       94.47151       89.96401760        1.42165999
       94.57121       82.84796753        1.80007385
       94.67090       82.62511241        1.81845617
       94.77059       82.24559102        1.41034785
       94.87029       77.82369307        1.24733982
       94.96998       73.06174125        1.22368698
       95.06967       66.44514226        1.34494872
       95.16937       64.85399304        1.81882721
       95.26906       65.07496636        1.40749492
       95.36875       61.75594406        1.24401908
       95.46845       60.98372860        1.18802800
       95.56814       59.52967525        1.35059195
       95.66783       62.08012347        1.54963060
       95.76753       58.13669644        1.23905030
       95.86722       54.99963984        1.02501571
       95.96691       55.09281049        1.06410365
       96.06661       53.73003773        1.34610960
       96.16630       54.69759619        1.44840521
       96.26599       51.55448982        1.26269666
       96.36569       49.66165723        1.11192409
       96.46538       47.91655074        1.05401734
       96.56507       47.26770460        1.29206502
       96.66477       48.05456791        1.26949630
       96.76446       50.32725800        1.16105434
       96.86415       47.83095634        0.98035325
       96.96385       48.24672005        1.01695777
       97.06354       49.41188627        1.39169799
       97.16323       48.77980632        1.32211556
       97.26293       46.61423744        1.21414968
       97.36262       49.82228578        1.16251797
       97.46231       49.67664418        1.06792628
       97.56201       49.75135906        1.35968635
       97.66170       52.10444982        1.24990322
       97.76139       51.76203653        1.13177129
       97.86109       54.46056943        1.04984053
       97.96078       56.29580956        1.09076952
       98.06047       55.01033356        1.49759310
       98.16017       54.12944444        1.32056163
       98.25986       56.41201213        1.28779509
       98.35956       56.79156971        1.21989375
       98.45925       62.16453019        1.19151468
       98.55894       63.72668729        1.57377326
       98.65864       62.27198140        1.33474763
       98.75833       64.60940617        1.27043608
       98.85802       68.19905850        1.21888764
       98.95772       71.03740947        1.23581263
       99.05741       74.15166552        1.75300455
       99.15710       72.94489349        1.49519730
       99.25680       75.33252981        1.47219933
       99.35649       77.24524891        1.41994020
       99.45618       82.31482120        1.36622995
       99.55588       87.47324546        1.88220501
       99.65557       86.84897043        1.54721140
       99.75526       85.39269202        1.43786787
       99.85496       87.04323272        1.38177301
       99.95465       87.52219741        1.35840717
      100.05434       87.17014098        1.93123870
      100.15404       84.89127639        1.60513776
      100.25373       87.53292487        1.61055009
      100.35342       86.72620296        1.59680048
      100.45312       85.78647836        1.44911927
      100.55281       83.12824379        1.87339154
      100.65250       84.11016947        1.53521845
      100.75220       81.48176494        1.39952158
      100.85189       80.50452391        1.32915746
      100.95158       75.89116324        1.25582836
      101.05128       79.19253192        1.82917558
      101.15097       74.65871499        1.46762684
      101.25066       80.33905407        1.50448325
      101.35036       75.39724943        1.46985696
      101.45005       77.37392420        1.40029862
      101.54974       76.29562645        1.73185770
      101.64944       73.88296004        1.39034185
      101.74913       76.09844265        1.32960177
      101.84882       77.32689526        1.30472200
      101.94852       78.20293002        1.38215534
      102.04821       80.91226691        1.69351659
      102.14791       79.98219795        1.51740028
      102.24760       79.78081011        1.50267996
      102.34729       81.94649273        1.51683887
      102.44699       85.70302876        1.57839414
      102.54668       85.99836309        1.65910904
      102.64637       86.56188910        1.48666406
      102.74607       88.87586644        1.43476724
      102.84576       88.14637472        1.40169878
      102.94545       87.23879318        1.58817438
      103.04515       88.71647614        1.69554999
      103.14484       85.96995002        1.55929697
      103.24453       85.39586913        1.53007493
      103.34423       88.00059250        1.54080217
      103.44392       87.94342358        1.66849632
      103.54361       85.85024124        1.60133303
      103.64331       85.96766975        1.45864199
      103.74300       85.36593350        1.38644093
      103.84269       85.35618163        1.36236256
      103.94239       83.65549526        1.62068913
      104.04208       85.09945705        1.58146886
      104.14177       84.02494646        1.52882570
      104.24147       82.28200705        1.51202438
      104.34116       81.77898977        1.51672731
      104.44085       79.40009155        1.69725229
      104.54055       80.28425979        1.54525645
      104.64024       77.36390753        1.42572363
      104.73993       77.30024846        1.35995362
      104.83963       75.43820483        1.29426741
      104.93932       68.43042638        1.49401326
      105.03901       70.68333669        1.43082934
      105.13871       74.14155517        1.41118667
      105.23840       68.51306396        1.35551719
      105.33809       71.10242556        1.38917253
      105.43779       66.75758633        1.56595604
      105.53748       68.31449644        1.42069337
      105.63717       63.93033026        1.25955920
      105.73687       62.23222787        1.18260511
      105.83656       62.60369110        1.15580635
      105.93626       58.14636122        1.41136834
      106.03595       60.08946024        1.30044760
      106.13564       56.54936657        1.21916618
      106.23534       55.80357888        1.22598173
      106.33503       55.40093358        1.23387384
      106.43472       50.99467573        1.39929326
      106.53442       52.03001531        1.22945007
      106.63411       53.52760285        1.13285245
      106.73380       52.39109605        1.06814864
      106.83350       52.96264012        1.05794656
      106.93319       54.18510556        1.38723166
      107.03288       52.85644444        1.21425882
      107.13258       58.01267361        1.23498028
      107.23227       55.52585185        1.22564838
      107.33196       56.08921809        1.22849362
      107.43166       56.46469959        1.48104013
      107.53135       53.15370630        1.23966420
      107.63104       58.88493003        1.18832752
      107.73074       60.49551709        1.15564614
      107.83043       64.21164477        1.17571523
      107.93012       64.64899737        1.56062740
      108.02982       65.97546644        1.37996010
      108.12951       65.45820114        1.30710728
      108.22920       68.20722714        1.31300440
      108.32890       67.45694900        1.29327976
      108.42859       66.17455560        1.62562305
      108.52828       68.57896057        1.40387834
      108.62798       67.76642968        1.26537544
      108.72767       68.93983092        1.22507095
      108.82736       67.41815553        1.23810266
      108.92706       70.35350912        1.60198549
      109.02675       67.82085797        1.37588948
      109.12644       65.96668415        1.32431671
      109.22614       69.07514630        1.35637404
      109.32583       66.84656244        1.45387376
      109.42552       68.12124377        1.54818660
      109.52522       66.04512435        1.37521905
      109.62491       65.84266118        1.30604961
      109.72461       64.43515664        1.23517843
      109.82430       62.67762507        1.13790457
      109.92399       61.22070505        1.46211652
      110.02369       60.43348654        1.27209251
      110.12338       61.88388928        1.27894470
      110.22307       58.35068852        1.23245085
      110.32277       58.41592208        1.25923852
      110.42246       56.17771859        1.50135384
      110.52215       56.51369896        1.27540496
      110.62185       54.37624392        1.17897637
      110.72154       55.48303338        1.11110945
      110.82123       56.76858848        1.16078229
      110.92093       54.07063488        1.32116284
      111.02062       53.96384748        1.21935132
      111.12031       56.89755538        1.26153603
      111.22001       55.52107591        1.22277864
      111.31970       56.32755526        1.33669401
      111.41939       57.35708647        1.39580217
      111.51909       58.29945899        1.27692446
      111.61878       59.32144349        1.21342606
      111.71847       63.07660834        1.16429188
      111.81817       63.73335393        1.27025548
      111.91786       67.67499396        1.37769424
      112.01755       68.40373506        1.35249805
      112.11725       68.50867051        1.36379164
      112.21694       74.14098585        1.41265316
      112.31663       73.33538986        1.54814954
      112.41633       76.30362261        1.55151982
      112.51602       76.12739497        1.42709806
      112.61571       80.26205879        1.39802479
      112.71541       83.49057718        1.34387028
      112.81510       86.42458987        1.53325041
      112.91479       87.74717658        1.57382774
      113.01449       88.26056012        1.54570246
      113.11418       89.01610350        1.54715696
      113.21387       89.67020400        1.54580237
      113.31357       92.65497608        1.74525340
      113.41326       93.24091458        1.66386707
      113.51296       93.27693836        1.56542146
      113.61265       91.82739788        1.49861611
      113.71234       89.43214322        1.41252596
      113.81204       90.41001479        1.62712097
      113.91173       91.63044985        1.58738534
      114.01142       90.70852068        1.56342074
      114.11112       86.62908593        1.52683182
      114.21081       86.69073141        1.53842589
      114.31050       88.93152481        1.76717868
      114.41020       86.85753152        1.61369972
      114.50989       86.58110271        1.50826683
      114.60958       85.08530035        1.44683438
      114.70928       82.41186938        1.37321433
      114.80897       79.96939877        1.53409340
      114.90866       81.56018829        1.46136291
      115.00836       81.69051366        1.45570067
      115.10805       80.55233715        1.45333953
      115.20774       82.18334951        1.49027965
      115.30744       83.11352169        1.72082596
      115.40713       85.06116259        1.57691852
      115.50682       82.73706113        1.46813414
      115.60652       87.16819592        1.45256771
      115.70621       86.48153523        1.39047924
      115.80590       89.24997216        1.64802563
      115.90560       89.03426589        1.49189789
      116.00529       92.56873890        1.53838618
      116.10498       97.08934028        1.59221615
      116.20468       99.46346430        1.64870353
      116.30437       99.93543106        1.97004570
      116.40406      102.61594062        1.73884920
      116.50376       99.60835314        1.61877317
      116.60345      102.22135350        1.57429266
      116.70314      111.71941220        1.59640983
      116.80284      119.62933991        1.96338716
      116.90253      119.39146464        1.76439428
      117.00222      124.39188103        1.78703163
      117.10192      127.93386480        1.86108216
      117.20161      133.16458492        1.92221338
      117.30131      130.89993102        2.28033843
      117.40100      140.72888699        1.98843803
      117.50069      142.53688247        1.90075189
      117.60039      150.61667051        1.87039986
      117.70008      157.05167149        1.85072001
      117.79977      155.99144694        2.26011276
      117.89947      161.36546368        1.99871545
      117.99916      162.72936621        2.03117631
      118.09885      164.25868655        2.07907124
      118.19855      164.36150823        2.17828272
      118.29824      172.92550120        2.45012370
      118.39793      174.80585003        2.23673043
      118.49763      176.82288663        2.12294540
      118.59732      176.61149445        2.04841931
      118.69701      179.31282597        2.15038336
      118.79671      179.14715885        2.32082960
      118.89640      175.70946086        2.14271714
      118.99609      176.17721114        2.14330653
      119.09579      178.71596721        2.18404878
      119.19548      175.37621736        2.36374758
      119.29517      175.64578559        2.45766468
      119.39487      178.48845537        2.27767982
      119.49456      173.86117136        2.11806123
      119.59425      167.51858977        2.01865731
      119.69395      161.17687565        2.08854315
      119.79364      156.23874456        2.07778914
      119.89333      152.38308231        1.98568947
      119.99303      149.21498662        1.91826845
      120.09272      144.26769594        1.92885493
      120.19241      141.03450306        2.14339669
      120.29211      137.39083024        2.09369071
      120.39180      136.37417457        1.98999699
      120.49149      132.61258695        1.82485365
      120.59119      126.23759668        1.72773786
      120.69088      124.14988097        1.84434025
      120.79057      120.37869847        1.77689063
      120.89027      116.10675562        1.71300280
      120.98996      118.56899729        1.71791537
      121.08966      118.75900246        1.73217349
      121.18935      121.81810267        2.01114460
      121.28904      116.66295363        1.91789191
      121.38874      112.96456428        1.78443225
      121.48843      118.57207369        1.72707534
      121.58812      116.37232619        1.63171794
      121.68782      116.29217872        1.80703894
      121.78751      115.04751881        1.71261963
      121.88720      113.63539277        1.68023171
      121.98690      113.71490475        1.69341793
      122.08659      114.34687802        1.73216175
      122.18628      112.33276796        1.99149403
      122.28598      113.60370192        1.88342839
      122.38567      108.88638088        1.76568386
      122.48536      112.61553866        1.69880122
      122.58506      110.66938613        1.59487212
      122.68475      108.80332344        1.79185925
      122.78444      107.87406847        1.67995779
      122.88414      106.71295400        1.65664119
      122.98383      105.79474070        1.68324240
      123.08352      101.24957297        1.63234708
      123.18322      104.39646369        1.93340626
      123.28291      106.44117864        1.77442290
      123.38260      101.45734651        1.67209047
      123.48230      101.28344880        1.61019036
      123.58199      100.81314950        1.50147875
      123.68168       96.00298224        1.67168659
      123.78138       97.23970647        1.51795332
      123.88107       94.65470668        1.46288135
      123.98076       86.57474486        1.42452799
      124.08046       87.78143016        1.41936799
      124.18015       86.26457368        1.59250245
      124.27984       86.25720454        1.42671677
      124.37954       85.07180313        1.33695710
      124.47923       85.28605793        1.30686091
      124.57893       77.30113241        1.32517542
