        5.04651       58.76321794        2.61499950
        5.14621       55.98249816        2.45961883
        5.24590       57.96780671        2.46713236
        5.34559       54.29341699        2.18959480
        5.44529       57.92632593        2.46079995
        5.54498       56.87344264        2.05099616
        5.64467       55.50862484        2.00843076
        5.74437       55.75249902        1.81697951
        5.84406       56.11937461        1.84484234
        5.94375       55.84524141        1.83784652
        6.04345       53.96678381        1.75540479
        6.14314       54.48137575        1.61494414
        6.24283       52.49951730        1.63751603
        6.34253       54.99660483        1.59870572
        6.44222       52.32643981        1.64185141
        6.54191       55.15206034        1.59700433
        6.64161       52.81783569        1.48042020
        6.74130       53.25032741        1.49249582
        6.84099       54.43865780        1.49819400
        6.94069       52.93914645        1.49958379
        7.04038       51.78031428        1.36893421
        7.14007       52.36160067        1.37377061
        7.23977       54.90791730        1.38230518
        7.33946       53.18813612        1.38122691
        7.43915       49.38236258        1.31335180
        7.53885       52.67334994        1.33153661
        7.63854       53.78057539        1.28600926
        7.73823       54.55360226        1.34493913
        7.83793       52.88688385        1.28140198
        7.93762       53.59517903        1.34564145
        8.03732       54.38338007        1.21568194
        8.13701       52.71596096        1.19142747
        8.23670       52.37408111        1.20430038
        8.33640       51.18826477        1.19086613
        8.43609       53.23843456        1.26978021
        8.53578       53.29807336        1.18339089
        8.63548       54.02118669        1.17772804
        8.73517       53.72516431        1.15209953
        8.83486       54.38076561        1.16195721
        8.93456       53.72715160        1.14899486
        9.03425       54.81713969        1.12664915
        9.13394       53.47807719        1.11484581
        9.23364       53.18998885        1.12806150
        9.33333       53.82336297        1.15788760
        9.43302       54.60524643        1.16673357
        9.53272       52.59522694        1.10629375
        9.63241       52.49600259        1.13648593
        9.73210       55.61386248        1.16753188
        9.83180       56.78030987        1.22930224
        9.93149       55.81664938        1.21006047
       10.03118       54.23048928        1.14758280
       10.13088       55.11136644        1.12917964
       10.23057       56.60462893        1.19845687
       10.33026       56.98502392        1.24298001
       10.42996       55.25346717        1.20710622
       10.52965       56.22384268        1.17928660
       10.62934       55.66543640        1.17621183
       10.72904       55.28356545        1.18949007
       10.82873       55.07274314        1.18122848
       10.92842       55.50347989        1.20573399
       11.02812       56.60362676        1.16008954
       11.12781       56.37152534        1.19922581
       11.22750       53.88986765        1.18411006
       11.32720       56.48299352        1.24498504
       11.42689       56.03095987        1.19695288
       11.52658       58.59413018        1.20954585
       11.62628       57.89590335        1.21533333
       11.72597       57.25385148        1.23421762
       11.82567       57.61070865        1.27250191
       11.92536       61.18155450        1.22733627
       12.02505       62.26767928        1.24399487
       12.12475       62.32938722        1.24348158
       12.22444       67.17925402        1.36911230
       12.32413       69.36983084        1.41250635
       12.42383       75.20480971        1.39611341
       12.52352       80.95307178        1.43960884
       12.62321       88.43166292        1.54738630
       12.72291       98.70313342        1.59084083
       12.82260      115.53692743        1.87131116
       12.92229      123.85563242        1.75944775
       13.02199      143.74345939        1.88072179
       13.12168      170.39264933        2.08383057
       13.22137      207.92272396        2.37797838
       13.32107      243.83981005        2.65952549
       13.42076      282.60336789        2.75782175
       13.52045      316.98515860        2.95780751
       13.62015      333.47637934        2.94138583
       13.71984      335.42661102        3.07561780
       13.81953      309.63305129        3.00454343
       13.91923      276.76194110        2.66797280
       14.01892      227.53186327        2.35470960
       14.11861      177.13265872        2.16682765
       14.21831      141.76942855        1.93991538
       14.31800      114.68361916        1.83635727
       14.41769       90.53499886        1.57076865
       14.51739       75.91270736        1.40297129
       14.61708       65.84104370        1.30964541
       14.71677       58.23522520        1.25156084
       14.81647       57.19106070        1.29930202
       14.91616       51.58937625        1.13463185
       15.01585       52.15734219        1.16145810
       15.11555       52.70218261        1.18106443
       15.21524       51.99845472        1.20908397
       15.31493       49.31892867        1.20580142
       15.41463       49.15301162        1.16551724
       15.51432       51.34322176        1.15438136
       15.61402       49.74843752        1.16502025
       15.71371       50.01175476        1.16008660
       15.81340       49.39690070        1.19936240
       15.91310       48.68996623        1.15697034
       16.01279       51.12929953        1.13529576
       16.11248       49.95481325        1.15226782
       16.21218       49.67739976        1.18089548
       16.31187       51.69076944        1.20761900
       16.41156       48.17671175        1.14399790
       16.51126       49.22110577        1.17592642
       16.61095       50.47676865        1.14828424
       16.71064       51.40360547        1.19545346
       16.81034       52.62450196        1.21327945
       16.91003       56.90590518        1.22546810
       17.00972       56.88188606        1.17619310
       17.10942       58.76943262        1.26370171
       17.20911       63.24502564        1.32270668
       17.30880       69.54842534        1.39938396
       17.40850       69.58084019        1.39935139
       17.50819       73.68879110        1.39848779
       17.60788       75.52978622        1.45989144
       17.70758       76.05592062        1.47102940
       17.80727       74.95006288        1.47826782
       17.90696       72.59119911        1.36011701
       18.00666       69.76972965        1.35671084
       18.10635       63.04350585        1.25413610
       18.20604       60.78970763        1.35091015
       18.30574       56.97951258        1.24634719
       18.40543       59.08713716        1.23788301
       18.50512       57.32092397        1.25764499
       18.60482       55.24343242        1.21519188
       18.70451       52.50406056        1.25180202
       18.80420       53.11592319        1.18283755
       18.90390       53.69443670        1.17659002
       19.00359       50.22861252        1.10810179
       19.10328       49.47836747        1.16353966
       19.20298       49.16461587        1.19592166
       19.30267       49.54852785        1.15295866
       19.40237       47.43073960        1.11519973
       19.50206       49.12616322        1.16356070
       19.60175       48.43475603        1.14236083
       19.70145       45.39365390        1.15953189
       19.80114       47.59011511        1.12612593
       19.90083       47.80718334        1.09055624
       20.00053       45.11349035        1.07808223
       20.10022       48.24426493        1.12326710
       20.19991       47.82692596        1.19567448
       20.29961       52.69409393        1.18936123
       20.39930       49.81732890        1.19125402
       20.49899       50.66108568        1.18046477
       20.59869       51.64579717        1.21371614
       20.69838       50.01789819        1.23840956
       20.79807       55.22922239        1.24143208
       20.89777       55.54548244        1.21682955
       20.99746       56.53077953        1.23982320
       21.09715       59.49772941        1.33990089
       21.19685       58.45214839        1.32110464
       21.29654       60.26607882        1.30865725
       21.39623       56.07745084        1.26224112
       21.49593       56.86561268        1.25294789
       21.59562       58.60423715        1.30266646
       21.69531       51.72584467        1.27264105
       21.79501       49.20245133        1.13535960
       21.89470       48.92836314        1.10670602
       21.99439       47.67386968        1.13869234
       22.09409       48.64947612        1.15317450
       22.19378       45.98958040        1.19059959
       22.29347       47.08711349        1.12205493
       22.39317       47.85757323        1.16053343
       22.49286       48.70814088        1.16990026
       22.59255       45.61963249        1.14539014
       22.69225       49.02139824        1.25135679
       22.79194       46.87813157        1.09890979
       22.89163       48.15591252        1.09205823
       22.99133       48.38594033        1.12502858
       23.09102       46.35591249        1.14353587
       23.19072       46.91327110        1.15312604
       23.29041       49.34878928        1.16805455
       23.39010       47.43482737        1.15709848
       23.48980       49.10126951        1.18159160
       23.58949       47.70675520        1.18025230
       23.68918       45.56159261        1.21279454
       23.78888       44.33904556        1.06619637
       23.88857       47.98198944        1.12378991
       23.98826       47.22849289        1.13980542
       24.08796       46.97266985        1.11455656
       24.18765       44.87802299        1.16723805
       24.28734       47.07696629        1.13831402
       24.38704       45.16527644        1.13352087
       24.48673       48.41923918        1.16958031
       24.58642       45.92163746        1.17660019
       24.68612       45.37888697        1.16805865
       24.78581       45.95434604        1.08357968
       24.88550       45.73098449        1.08049391
       24.98520       45.66116537        1.11960313
       25.08489       47.30765168        1.16243228
       25.18458       46.48748850        1.17648353
       25.28428       49.51905077        1.17043325
       25.38397       49.75959513        1.16758319
       25.48366       51.91829016        1.19986654
       25.58336       53.61282884        1.27093760
       25.68305       60.09084750        1.31994127
       25.78274       70.58278782        1.35057030
       25.88244       82.66444329        1.49890883
       25.98213      105.76915753        1.71027499
       26.08182      134.24390993        1.97859094
       26.18152      159.88568001        2.21258286
       26.28121      186.99641194        2.26455304
       26.38090      198.15241681        2.35102630
       26.48060      195.34239761        2.39836433
       26.58029      184.62976237        2.43200372
       26.67998      158.55755678        2.12748672
       26.77968      131.48557428        1.91350482
       26.87937       97.21163252        1.62063110
       26.97907       82.17242908        1.47734750
       27.07876       73.29002998        1.50212618
       27.17845       70.62840294        1.40913773
       27.27815       77.41611031        1.44106120
       27.37784       83.97527647        1.55966666
       27.47753       84.08784740        1.53764410
       27.57723       86.71746914        1.63590428
       27.67692       87.62215565        1.60515641
       27.77661       80.77336132        1.47068333
       27.87631       74.04667422        1.38450256
       27.97600       64.42544579        1.32019591
       28.07569       57.28748676        1.31733334
       28.17539       56.46433534        1.25202967
       28.27508       53.11176372        1.21469998
       28.37477       52.70630897        1.23884011
       28.47447       50.27922256        1.20042752
       28.57416       51.76154957        1.31686746
       28.67385       53.05207176        1.18615906
       28.77355       57.10859960        1.20863057
       28.87324       55.73927979        1.22578855
       28.97293       61.37892279        1.28956027
       29.07263       61.62219462        1.40847946
       29.17232       59.41514582        1.26203493
       29.27201       58.78029535        1.27844297
       29.37171       55.19585336        1.27426381
       29.47140       54.14627097        1.24748653
       29.57109       49.99515554        1.27093803
       29.67079       49.25157575        1.14838585
       29.77048       50.21231681        1.16226239
       29.87017       47.74696726        1.11102895
       29.96987       48.04966630        1.16864452
       30.06956       48.12747440        1.20664922
       30.16925       50.97902570        1.16942543
       30.26895       49.84307431        1.16069386
       30.36864       50.10954370        1.18282167
       30.46833       53.83660913        1.23860485
       30.56803       55.39130737        1.32720291
       30.66772       57.23321146        1.25549787
       30.76742       61.83936080        1.27910986
       30.86711       61.95151357        1.30577204
       30.96680       64.12729210        1.33627629
       31.06650       64.99909029        1.41069202
       31.16619       64.89907352        1.32536857
       31.26588       61.31073353        1.28031509
       31.36558       62.32964218        1.30786812
       31.46527       59.77691091        1.33257600
       31.56496       63.98435397        1.40101919
       31.66466       68.18417493        1.35271860
       31.76435       73.61071579        1.40428404
       31.86404       82.26247969        1.46536387
       31.96374       89.43580971        1.56367218
       32.06343       88.20706276        1.60690420
       32.16312       85.51407554        1.48678449
       32.26282       80.62367831        1.47872636
       32.36251       71.35507040        1.44640498
       32.46220       67.65420566        1.43354746
       32.56190       61.84343309        1.39468116
       32.66159       57.29742523        1.27466792
       32.76128       55.26534066        1.22369690
       32.86098       55.23775353        1.24176632
       32.96067       54.92918048        1.25379506
       33.06036       53.12875999        1.25549731
       33.16006       53.46890409        1.18616787
       33.25975       58.31119980        1.27917582
       33.35944       56.46414518        1.26549281
       33.45914       54.66236335        1.29241679
       33.55883       58.33612099        1.33843734
       33.65852       63.38018897        1.30113363
       33.75822       67.96121971        1.34516420
       33.85791       75.94020546        1.42802553
       33.95760       83.89822694        1.54558842
       34.05730       91.36414097        1.59742191
       34.15699       99.30072857        1.63903228
       34.25668      114.57621694        1.75490400
       34.35638      136.14732274        1.96296709
       34.45607      173.73162325        2.33666710
       34.55577      221.99346712        2.51859766
       34.65546      296.27781829        2.79320969
       34.75515      372.12315850        3.19234159
       34.85485      445.29234214        3.46892093
       34.95454      470.33783018        3.67806612
       35.05423      447.55643747        3.70899191
       35.15393      387.76214990        3.23919069
       35.25362      299.71155014        2.88871772
       35.35331      218.94124489        2.53082159
       35.45301      160.84161860        2.26228188
       35.55270      118.16779876        1.88722423
       35.65239       92.65157629        1.61359530
       35.75209       84.32914425        1.52821505
       35.85178       78.02077709        1.46783134
       35.95147       71.59388182        1.43894201
       36.05117       68.24115448        1.37582194
       36.15086       62.99063752        1.27078901
       36.25055       61.84472969        1.31551740
       36.35025       57.44340817        1.29248868
       36.44994       52.20117973        1.25651006
       36.54963       52.08211848        1.20482088
       36.64933       52.31262653        1.18947809
       36.74902       53.40860253        1.21448077
       36.84871       53.48710555        1.20660876
       36.94841       51.06813237        1.27491863
       37.04810       50.31233130        1.11577767
       37.14779       51.09713024        1.14753563
       37.24749       52.28669650        1.19315715
       37.34718       50.69252967        1.20472878
       37.44687       50.06226856        1.28601853
       37.54657       51.07320433        1.18588773
       37.64626       49.38897728        1.16163011
       37.74595       47.30622188        1.11901546
       37.84565       48.62034859        1.20040789
       37.94534       47.75810097        1.21198237
       38.04503       50.20161196        1.12319136
       38.14473       48.90947877        1.11945582
       38.24442       51.80815946        1.17332818
       38.34412       49.81501121        1.20278584
       38.44381       50.65184844        1.31147980
       38.54350       50.21128297        1.16395497
       38.64320       50.69913134        1.16607071
       38.74289       52.00304230        1.19647099
       38.84258       53.81708244        1.22018161
       38.94228       55.43942689        1.29902994
       39.04197       60.67968502        1.22567330
       39.14166       66.80042811        1.33803967
       39.24136       70.56518625        1.37167767
       39.34105       70.50765712        1.41891032
       39.44074       69.20698960        1.53327912
       39.54044       72.09395174        1.39940067
       39.64013       70.02172952        1.37483799
       39.73982       65.62441985        1.33616872
       39.83952       63.39135808        1.30427803
       39.93921       60.18986256        1.34743767
       40.03890       55.83171244        1.18772740
       40.13860       54.72097422        1.17429083
       40.23829       54.59206035        1.21439682
       40.33798       56.84656938        1.27795017
       40.43768       55.49810414        1.32106745
       40.53737       56.77663367        1.24021936
       40.63706       58.51306721        1.28555514
       40.73676       59.55427405        1.29493003
       40.83645       60.71740480        1.31848261
       40.93614       63.65915968        1.37280194
       41.03584       67.52742048        1.33073536
       41.13553       74.27063643        1.39738738
       41.23522       88.22255114        1.56045734
       41.33492      105.38781926        1.78588747
       41.43461      121.97118938        1.98320003
       41.53430      145.06942104        2.02617436
       41.63400      172.67142029        2.25986814
       41.73369      191.24347893        2.32704021
       41.83338      201.08874768        2.45040599
       41.93308      203.95020246        2.44596425
       42.03277      202.65225925        2.22818730
       42.13247      215.63859660        2.41580548
       42.23216      255.99738249        2.63798586
       42.33185      326.22846088        3.19951646
       42.43155      414.26115331        3.55691657
       42.53124      522.57215176        3.87551291
       42.63093      614.04955330        4.21644233
       42.73063      643.83110458        4.33891389
       42.83032      622.52899967        4.34057849
       42.93001      557.04863625        3.94703117
       43.02971      433.91529459        3.28344889
       43.12940      308.20640688        2.81759576
       43.22909      207.37878073        2.42566798
       43.32879      147.88051916        2.15664495
       43.42848      110.35951382        1.82168584
       43.52817       84.16778251        1.52185479
       43.62787       73.43805895        1.41689517
       43.72756       65.84053939        1.37328680
       43.82725       63.20294673        1.40497370
       43.92695       63.51221375        1.27724975
       44.02664       57.89643610        1.21344076
       44.12633       56.92925672        1.24808655
       44.22603       55.24637951        1.27966968
       44.32572       59.21637669        1.39653724
       44.42541       54.05983329        1.27374004
       44.52511       56.26361396        1.26458967
       44.62480       58.39678171        1.30664938
       44.72449       58.58411120        1.26828090
       44.82419       65.38848390        1.50385974
       44.92388       67.31575947        1.27261549
       45.02357       71.55721492        1.32291566
       45.12327       78.99837142        1.43184384
       45.22296       92.56695936        1.59107386
       45.32265      108.23459104        1.90350555
       45.42235      130.07371100        1.90061875
       45.52204      168.08339716        2.14049210
       45.62174      210.10534958        2.43886796
       45.72143      263.15749210        2.73320741
       45.82112      295.84987799        3.17533458
       45.92082      308.83450999        2.75533833
       46.02051      312.14652784        2.82965863
       46.12020      271.15707408        2.64257572
       46.21990      218.22574060        2.48723188
       46.31959      173.84958092        2.39437673
       46.41928      132.03896345        1.92527286
       46.51898       99.33572914        1.67806747
       46.61867       78.98444334        1.48836484
       46.71836       65.10844190        1.38581445
       46.81806       58.78639482        1.36540602
       46.91775       57.95940138        1.18189302
       47.01744       55.88496209        1.18819967
       47.11714       60.87817643        1.26869096
       47.21683       61.51192388        1.31279831
       47.31652       66.09323808        1.48468561
       47.41622       74.10302271        1.48169405
       47.51591       86.22732856        1.60156312
       47.61560      102.18444662        1.72932414
       47.71530      127.23962499        1.95162754
       47.81499      152.13397451        2.18897455
       47.91468      184.89042683        2.11285848
       48.01438      211.43348033        2.26208721
       48.11407      223.21709204        2.41200163
       48.21376      215.96731756        2.47645535
       48.31346      192.06385406        2.41680828
       48.41315      162.31667742        2.06921473
       48.51284      131.87959737        1.92571908
       48.61254      100.35444080        1.67172987
       48.71223       81.29089230        1.53134107
       48.81192       69.12563292        1.40850681
       48.91162       60.19672861        1.17813606
       49.01131       54.57298188        1.16099350
       49.11100       51.62095287        1.16978551
       49.21070       51.94175685        1.23198817
       49.31039       55.17501095        1.30696830
       49.41009       48.63252214        1.15890269
       49.50978       50.31834188        1.20328251
       49.60947       49.03769073        1.19651301
       49.70917       49.48578717        1.24655590
       49.80886       48.47424414        1.20070122
       49.90855       47.95009215        1.08781213
       50.00825       50.59943427        1.14116913
       50.10794       49.15435326        1.15029473
       50.20763       50.11121108        1.21347358
       50.30733       52.59285713        1.30230666
       50.40702       54.08157258        1.23848839
       50.50671       54.46186306        1.24650166
       50.60641       56.19187992        1.26801555
       50.70610       54.73261186        1.28762194
       50.80579       56.13389608        1.28685635
       50.90549       56.45691184        1.16355653
       51.00518       54.41791399        1.15239709
       51.10487       54.47995421        1.19190471
       51.20457       54.52983306        1.26947242
       51.30426       55.13249259        1.26985518
       51.40395       56.79566038        1.23567227
       51.50365       59.34337337        1.27762323
       51.60334       59.75970272        1.30743651
       51.70303       60.92371338        1.40193848
       51.80273       59.70832668        1.27301033
       51.90242       59.49082307        1.18720860
       52.00211       62.48203887        1.22257152
       52.10181       63.33299158        1.26986384
       52.20150       61.18711432        1.37446688
       52.30119       61.04707283        1.32250000
       52.40089       60.44116345        1.29528741
       52.50058       63.73912736        1.35544284
       52.60027       59.13781308        1.32322026
       52.69997       59.95906723        1.46020736
       52.79966       58.11068582        1.20849253
       52.89935       58.53521173        1.17031982
       52.99905       65.16486044        1.25522852
       53.09874       73.81386120        1.37927893
       53.19844       86.92664476        1.71456414
       53.29813      102.68569819        1.65668794
       53.39782      121.11185195        1.86207496
       53.49752      144.71433888        2.04600380
       53.59721      162.43702378        2.16703085
       53.69690      174.76637728        2.46719700
       53.79660      174.31913670        2.06394157
       53.89629      171.46797242        2.02471693
       53.99598      155.20991297        1.97242404
       54.09568      137.04869410        1.93449499
       54.19537      119.19585538        1.96661660
       54.29506      105.45431334        1.69879596
       54.39476       95.19742580        1.62619541
       54.49445       88.13181848        1.56555358
       54.59414       84.97865616        1.56062052
       54.69384       79.99514276        1.61508290
       54.79353       82.14535062        1.40361501
       54.89322       77.71294054        1.36012110
       54.99292       73.85949479        1.36464663
       55.09261       70.70761210        1.38842845
       55.19230       69.53733768        1.47860883
       55.29200       64.85872027        1.32892194
       55.39169       61.73551070        1.33768071
       55.49138       56.75896047        1.27767406
       55.59108       53.97385077        1.28577771
       55.69077       54.77838425        1.32939400
       55.79046       52.23371428        1.13484543
       55.89016       52.90161751        1.13937612
       55.98985       53.64638545        1.15475342
       56.08954       57.56092330        1.23572624
       56.18924       59.02248293        1.35047579
       56.28893       64.99481004        1.29722726
       56.38862       74.47459193        1.43671559
       56.48832       86.45690134        1.57508688
       56.58801       94.83578276        1.69763899
       56.68770      103.47927931        1.83063635
       56.78740      110.04620839        1.61596844
       56.88709      117.87931982        1.68965425
       56.98679      111.24073242        1.64257041
       57.08648      106.51201939        1.70370950
       57.18617       95.00162854        1.66555019
       57.28587       86.87391146        1.48784475
       57.38556       75.34179733        1.47449736
       57.48525       65.75799075        1.40360579
       57.58495       58.94517843        1.35908853
       57.68464       56.17631370        1.33825053
       57.78433       55.03179661        1.15867691
       57.88403       54.58229522        1.16736968
       57.98372       52.35401633        1.16140728
       58.08341       51.79944011        1.24905778
       58.18311       50.51065980        1.26165208
       58.28280       50.57166839        1.18905616
       58.38249       52.74960311        1.26902101
       58.48219       52.22665631        1.28995760
       58.58188       51.14801951        1.29047941
       58.68157       50.05733026        1.25095649
       58.78127       50.60422592        1.10019726
       58.88096       55.18916953        1.13218796
       58.98065       53.48872673        1.15698088
       59.08035       55.85827660        1.26171063
       59.18004       55.81332051        1.27936605
       59.27973       59.98364603        1.25152321
       59.37943       65.16073446        1.34764293
       59.47912       64.29240942        1.39343583
       59.57881       71.36612806        1.53829402
       59.67851       76.37001238        1.48379525
       59.77820       84.88898847        1.43843798
       59.87789       87.71221402        1.45699185
       59.97759       96.44617100        1.59856968
       60.07728      102.83265631        1.78781274
       60.17697      102.73682490        1.70227229
       60.27667      104.01091339        1.66530126
       60.37636      104.90455711        1.70493471
       60.47605      104.83948242        1.77811967
       60.57575       99.86709958        1.90168759
       60.67544       95.30411203        1.59586451
       60.77514       85.40255659        1.43578439
       60.87483       77.56945815        1.34153644
       60.97452       68.83103786        1.33097551
       61.07422       67.51300221        1.48077549
       61.17391       66.88444248        1.27669420
       61.27360       64.41689255        1.29730163
       61.37330       69.73270706        1.40008928
       61.47299       66.41792954        1.42629185
       61.57268       67.40118050        1.63396528
       61.67238       68.65976844        1.34415350
       61.77207       72.97704262        1.34984193
       61.87176       68.78815228        1.29573662
       61.97146       68.53194381        1.34273192
       62.07115       68.95786186        1.52547540
       62.17084       64.27328406        1.29009757
       62.27054       64.97832999        1.35255751
       62.37023       61.90294680        1.37260523
       62.46992       62.93288991        1.43146298
       62.56962       60.52576334        1.57656604
       62.66931       58.68658797        1.25054191
       62.76900       59.16772326        1.22386717
       62.86870       64.92796569        1.25428848
       62.96839       65.31310608        1.29808108
       63.06808       75.81931812        1.55691469
       63.16778       82.17390590        1.43902451
       63.26747       98.33129704        1.62979628
       63.36716      117.83256855        1.85265102
       63.46686      135.97363918        2.05104019
       63.56655      154.50130575        2.32406376
       63.66624      172.18443936        2.08645297
       63.76594      192.87944964        2.14636825
       63.86563      208.04871690        2.22319340
       63.96532      205.34621267        2.31077772
       64.06502      200.16784482        2.44361145
       64.16471      181.24651090        2.14942941
       64.26440      154.88496517        2.06678656
       64.36410      128.06117197        1.91578301
       64.46379      111.70916445        1.89154220
       64.56349       93.09870183        1.75666206
       64.66318       82.72707068        1.44908491
       64.76287       67.71129299        1.29435102
       64.86257       63.34563606        1.24997423
       64.96226       57.92952447        1.25192352
       65.06195       59.33740395        1.37018434
       65.16165       55.57167141        1.19601228
       65.26134       54.00717409        1.20659801
       65.36103       55.28314588        1.27390394
       65.46073       55.90981905        1.32322469
       65.56042       54.31347601        1.36207783
       65.66011       55.26873582        1.19811348
       65.75981       56.23165034        1.19645540
       65.85950       56.55068922        1.19219570
       65.95919       61.28652337        1.29938896
       66.05889       63.83713780        1.37180757
       66.15858       70.56565781        1.37178442
       66.25827       80.22577417        1.51307750
       66.35797       92.23629095        1.69062260
       66.45766      105.39418306        1.92080368
       66.55735      121.34888148        2.06132231
       66.65705      138.82794765        1.95653961
       66.75674      153.92554841        2.00820638
       66.85643      164.57617740        2.05328575
       66.95613      173.51770452        2.19252179
       67.05582      174.45639671        2.21486896
       67.15551      166.44121091        2.05813841
       67.25521      158.33764946        2.10660522
       67.35490      141.28168868        2.09396486
       67.45459      123.90019193        2.06727168
       67.55429      108.44292089        1.85246234
       67.65398       89.13627975        1.50479587
       67.75367       79.38395639        1.40827532
       67.85337       76.05887918        1.39542542
       67.95306       76.44129904        1.49597144
       68.05275       77.17802490        1.42336871
       68.15245       84.60725323        1.47778961
       68.25214       99.02690834        1.69762797
       68.35184      106.85427079        1.83815022
       68.45153      110.38695182        2.05678709
       68.55122      121.73263452        1.86124163
       68.65092      127.43671058        1.77516435
       68.75061      131.39705525        1.82123229
       68.85030      127.62164700        1.82912632
       68.95000      128.09063634        2.07764928
       69.04969      117.89874908        1.68284047
       69.14938      103.21163001        1.61842382
       69.24908       91.30759666        1.62519752
       69.34877       80.85628412        1.58140399
       69.44846       73.62219137        1.75007611
       69.54816       64.76754559        1.27954523
       69.64785       59.06976407        1.20463615
       69.74754       55.19841836        1.17611229
       69.84724       49.56768384        1.14338446
       69.94693       52.95221576        1.33388468
       70.04662       47.37271093        1.03731574
       70.14632       50.02431571        1.10854904
       70.24601       49.82795800        1.18461974
       70.34570       48.37223975        1.23504490
       70.44540       50.56034844        1.48783768
       70.54509       45.34408983        1.10266929
       70.64478       51.16261358        1.16985544
       70.74448       50.04228174        1.17526802
       70.84417       50.80377724        1.22883331
       70.94386       50.95002589        1.35086154
       71.04356       51.35771561        1.12231379
       71.14325       50.45760194        1.15598044
       71.24294       52.10403212        1.23603368
       71.34264       52.78751924        1.31922061
       71.44233       55.05622840        1.50352933
       71.54202       51.95008921        1.18890039
       71.64172       54.52816998        1.18495561
       71.74141       51.95095575        1.13552245
       71.84110       54.95848440        1.20911802
       71.94080       54.16842966        1.30802038
       72.04049       53.09029702        1.09599549
       72.14019       52.20356059        1.13231058
       72.23988       53.89833725        1.20389873
       72.33957       52.40258581        1.32590185
       72.43927       53.55467813        1.47556951
       72.53896       51.36028534        1.15850656
       72.63865       51.37300153        1.13252827
       72.73835       55.68745955        1.15336854
       72.83804       58.70136369        1.25057096
       72.93773       59.88236481        1.34173287
       73.03743       62.88532415        1.19360843
       73.13712       67.95924194        1.30877982
       73.23681       70.49243628        1.40050815
       73.33651       68.31048210        1.51689858
       73.43620       69.76351767        1.66048364
       73.53589       67.89221873        1.32132051
       73.63559       69.52919110        1.31623343
       73.73528       68.09285992        1.29658332
       73.83497       66.00592254        1.35326407
       73.93467       65.30393335        1.41735814
       74.03436       61.06191093        1.21275226
       74.13405       59.42329620        1.24716167
       74.23375       55.53901085        1.25575014
       74.33344       54.79714905        1.37310888
       74.43313       55.84462031        1.43842872
       74.53283       53.97811653        1.20146864
       74.63252       56.34784792        1.21876239
       74.73221       57.10870656        1.22099019
       74.83191       59.88077366        1.32639888
       74.93160       63.00092166        1.37597585
       75.03129       66.33188231        1.25531786
       75.13099       73.20665685        1.36625476
       75.23068       81.30265348        1.50218711
       75.33037       94.63921539        1.78223373
       75.43007      107.85404599        1.93082431
       75.52976      121.20490208        1.77853990
       75.62945      141.99713490        1.92458653
       75.72915      156.88682124        2.01582929
       75.82884      163.02597752        2.21275174
       75.92854      166.18751610        2.09738219
       76.02823      171.18903309        1.99668472
       76.12792      177.62443721        2.12620875
       76.22762      170.00554465        2.19401374
       76.32731      162.94285315        2.42526290
       76.42700      154.23585409        2.22634099
       76.52670      143.17107184        1.97812265
       76.62639      121.48876279        1.79785817
       76.72608      105.98055184        1.65052048
       76.82578       97.99336082        1.82833487
       76.92547       94.95920710        1.44148187
       77.02516       99.94371297        1.53301615
       77.12486      108.04327963        1.67485282
       77.22455      119.37764833        1.87525680
       77.32424      133.00115526        2.43280968
       77.42394      134.40378901        1.95279706
       77.52363      148.67585711        1.98565946
       77.62332      162.41631838        2.06682463
       77.72302      166.34657628        2.09663239
       77.82271      175.45167987        2.52597022
       77.92240      178.94178222        1.95359901
       78.02210      179.83443934        2.11332668
       78.12179      167.56451083        2.17787632
       78.22148      156.22123327        2.22288771
       78.32118      145.50924766        2.48848062
       78.42087      126.72596693        1.82658235
       78.52056      108.50137903        1.74434500
       78.62026       93.20709243        1.60327827
       78.71995       80.98126086        1.49888727
       78.81964       74.41254486        1.60460946
       78.91934       66.83480379        1.17809261
       79.01903       63.18902259        1.25578636
       79.11872       62.29035000        1.29759366
       79.21842       56.43354943        1.31731308
       79.31811       59.00753339        1.51746346
       79.41780       55.40683566        1.19267800
       79.51750       57.93656534        1.23935900
       79.61719       55.53311492        1.21684757
       79.71689       59.64449693        1.30949704
       79.81658       59.45107633        1.38586459
       79.91627       60.73495438        1.18739986
       80.01597       60.13648915        1.21442062
       80.11566       64.91956369        1.31925305
       80.21535       62.11792227        1.37931799
       80.31505       60.91909687        1.62370968
       80.41474       66.41292821        1.30298080
       80.51443       66.45012418        1.29763745
       80.61413       71.85942184        1.39442887
       80.71382       68.55061025        1.40870160
       80.81351       70.90064715        1.60992831
       80.91321       75.60145429        1.22605989
       81.01290       81.50982853        1.37441700
       81.11259       93.46716930        1.58891633
       81.21229      108.46775345        1.85196776
       81.31198      117.66174858        2.15185988
       81.41167      137.26771304        1.82051137
       81.51137      165.98768178        2.06082008
       81.61106      188.88391340        2.29664155
       81.71075      213.44532845        2.52833545
       81.81045      223.63306472        2.74217119
       81.91014      259.86202327        2.27512351
       82.00983      294.09542382        2.58939028
       82.10953      322.51690700        3.03589387
       82.20922      344.63755577        3.49245584
       82.30891      359.65052450        3.74265539
       82.40861      375.39777531        3.11103742
       82.50830      365.68363534        3.06155948
       82.60799      371.33903300        3.32400557
       82.70769      356.28957389        3.54152544
       82.80738      345.58364074        3.33136504
       82.90707      327.81870081        2.63326814
       83.00677      305.54504842        2.70706242
       83.10646      278.14226928        3.03671312
       83.20615      255.68634740        3.23889815
       83.30585      235.60066538        2.94392723
       83.40554      205.42110720        2.28369825
       83.50524      170.42746633        2.02788488
       83.60493      136.20224667        1.99540331
       83.70462      121.91521262        2.12826629
       83.80432      110.48336516        1.77030366
       83.90401       88.82448915        1.33093405
       84.00370       76.05820806        1.28431822
       84.10340       67.57811935        1.44648341
       84.20309       66.45181915        1.74149221
       84.30278       65.72058849        1.40857050
       84.40248       63.17224085        1.21877858
       84.50217       62.39884896        1.18833114
       84.60186       61.94820651        1.33883562
       84.70156       62.01962981        1.75300011
       84.80125       63.30189584        1.23307773
       84.90094       63.07967529        1.10574132
       85.00064       61.63145686        1.12603260
       85.10033       64.16809420        1.35990086
       85.20002       63.27121399        2.31593721
       85.29972       61.80820078        1.20740227
       85.39941       62.76194686        1.24050534
       85.49910       67.16363787        1.24813847
       85.59880       66.70179725        1.39863044
       85.69849       61.65643995        2.41376314
       85.79818       65.73310534        1.17519165
       85.89788       63.90668207        1.13099121
       85.99757       66.04319435        1.18145083
       86.09726       64.97302934        1.34539433
       86.19696       69.79248630        2.67861095
       86.29665       64.00681096        1.21366993
       86.39634       65.18109145        1.24605947
       86.49604       65.42031890        1.22947542
       86.59573       61.21066742        1.26695359
       86.69542       65.37817376        2.73803602
       86.79512       58.62112465        1.07599171
       86.89481       57.16368783        1.04750529
       86.99451       57.96210799        1.09337146
       87.09420       56.38776669        1.20266525
       87.19389       49.76456849        2.67569039
       87.29359       54.56143684        1.13563759
       87.39328       51.79842989        1.12135008
       87.49297       51.54717949        1.08592236
       87.59267       48.03665335        1.06877475
       87.69236       47.67821522        3.18609314
       87.79205       51.32964396        1.02994374
       87.89175       50.17831221        1.01008797
       87.99144       51.65891479        1.06799683
       88.09113       50.50132412        1.12231612
       88.19083       54.27440655        6.15767545
       88.29052       51.64637818        1.14216633
       88.39021       49.87382692        1.12980597
       88.48991       51.30401255        1.09978626
       88.58960       50.89577980        1.06078683
       88.68929       46.35806750        7.84143265
       88.78899       49.98574582        1.01468051
       88.88868       50.04227513        0.99308255
       88.98837       47.94442925        1.01094093
       89.08807       47.38598863        1.02941240
       89.18776       37.47385766        7.44590725
       89.28745       47.45464885        1.04665392
       89.38715       51.00216442        1.09635286
       89.48684       50.09310086        1.06325546
       89.58653       55.45455013        1.09618687
       89.68623       49.91211342        8.42914832
       89.78592       58.11772751        1.09051762
       89.88561       62.43948925        1.10831304
       89.98531       66.98440777        1.17727377
       90.08500       75.00395733        1.29237317
       90.18469       97.17736549       12.27829195
       90.28439       82.68994577        1.38623843
       90.38408       88.91158110        1.46185895
       90.48377       95.33248622        1.48559865
       90.58347      102.86583267        1.51928582
       90.68316      106.87358840       12.06448240
       90.78286      100.39247172        1.43657591
       90.88255      103.85231273        1.42188629
       90.98224      105.90653926        1.48570824
       91.08194      104.58387734        1.52476837
       91.18163       97.01582225       11.71559129
       91.28132      102.32192771        1.55270375
       91.38102       99.18302643        1.56909918
       91.48071       97.40579145        1.51672771
       91.58040       85.74971464        1.37574523
       91.68010       89.14665337       10.61338992
       91.77979       80.73617705        1.28125520
       91.87948       71.29280488        1.18501230
       91.97918       64.93504539        1.17411622
       92.07887       62.38467512        1.19869282
       92.17856       62.90876272        9.15250330
       92.27826       62.18484583        1.23601388
       92.37795       62.19081440        1.26539619
       92.47764       64.23968580        1.22095630
       92.57734       68.52694249        1.22352356
       92.67703       83.52584793        8.77303351
       92.77672       76.16115839        1.24351344
       92.87642       83.70877827        1.27911793
       92.97611       92.02204509        1.40081555
       93.07580      100.57833865        1.67195252
       93.17550       99.82583924        3.13206430
       93.27519      101.07263924        1.54488478
       93.37488      102.33305791        1.51113857
       93.47458      110.24884028        1.58618098
       93.57427      109.09666095        1.82414149
       93.67396      109.29099061        2.46738328
       93.77366      110.28019320        1.53545534
       93.87335      110.65441795        1.46916580
       93.97304      104.41344019        1.48693193
       94.07274       97.49079442        1.86493441
       94.17243       95.58040238        2.10683392
       94.27212       89.84072494        1.52105193
       94.37182       89.01197558        1.47551927
       94.47151       77.70749677        1.31977170
       94.57121       73.27112275        1.69107363
       94.67090       73.58633997        1.71435326
       94.77059       69.05201605        1.29077208
       94.87029       63.84877257        1.12845567
       94.96998       62.70033251        1.13238643
       95.06967       62.75787518        1.30600370
       95.16937       61.77377734        1.77366086
       95.26906       58.77480119        1.33638522
       95.36875       60.55915072        1.23098192
       95.46845       57.78584789        1.15551067
       95.56814       57.09046850        1.32158253
       95.66783       54.97323360        1.45683827
       95.76753       56.16929315        1.21695776
       95.86722       54.69874465        1.02147313
       95.96691       56.35033449        1.07546482
       96.06661       55.89144625        1.37204958
       96.16630       52.33750251        1.41569153
       96.26599       52.98233641        1.27922036
       96.36569       51.13277995        1.12753203
       96.46538       50.64763975        1.08297510
       96.56507       49.28732697        1.31853826
       96.66477       49.27344278        1.28463962
       96.76446       48.14556235        1.13471774
       96.86415       48.85134132        0.99008852
       96.96385       50.58324841        1.04063933
       97.06354       52.13540818        1.42866192
       97.16323       50.31483427        1.34187794
       97.26293       48.37026917        1.23600759
       97.36262       50.55113663        1.17019063
       97.46231       48.42775825        1.05362335
       97.56201       50.63234219        1.37074256
       97.66170       54.54947054        1.27809707
       97.76139       52.67468331        1.14093293
       97.86109       51.23199580        1.01740947
       97.96078       54.71709289        1.07454505
       98.06047       55.28448983        1.50027130
       98.16017       55.73194613        1.33909300
       98.25986       53.96701855        1.25857791
       98.35956       55.29162842        1.20276045
       98.45925       58.89673126        1.15882045
       98.55894       59.72789428        1.52230421
       98.65864       59.17623630        1.30008457
       98.75833       58.87342549        1.21162835
       98.85802       63.92606892        1.17907319
       98.95772       68.10258557        1.20903442
       99.05741       70.89626880        1.71268405
       99.15710       68.52569008        1.44794791
       99.25680       76.37797973        1.48138550
       99.35649       78.79731210        1.43319837
       99.45618       82.71861917        1.36862806
       99.55588       84.54327761        1.84891575
       99.65557       87.44950662        1.55148691
       99.75526       88.90756288        1.46630568
       99.85496       88.91425699        1.39564961
       99.95465       89.03812951        1.36922545
      100.05434       89.98384462        1.96096675
      100.15404       91.60405200        1.66660783
      100.25373       88.45573662        1.61792566
      100.35342       91.94877662        1.64331593
      100.45312       90.10915502        1.48435586
      100.55281       88.20958101        1.92877923
      100.65250       85.42326837        1.54613335
      100.75220       82.48017693        1.40712361
      100.85189       77.71554576        1.30487976
      100.95158       75.01537487        1.24763967
      101.05128       72.88032996        1.75313307
      101.15097       71.31188411        1.43317076
      101.25066       71.52287884        1.41809306
      101.35036       73.05085840        1.44566235
      101.45005       70.97466676        1.33989290
      101.54974       74.71298285        1.71249373
      101.64944       76.01897708        1.40940481
      101.74913       80.47647575        1.36655690
      101.84882       83.63963475        1.35627528
      101.94852       83.21068671        1.42496463
      102.04821       87.60885998        1.76137277
      102.14791       91.12933285        1.61918116
      102.24760       90.22583184        1.59747793
      102.34729       91.78790673        1.60475952
      102.44699       90.35968396        1.61982718
      102.54668       96.52639235        1.75713993
      102.64637       94.42697079        1.55206675
      102.74607       97.05811524        1.49872933
      102.84576       99.45401275        1.48843201
      102.94545       97.88834132        1.68176065
      103.04515       93.49383753        1.73966567
      103.14484       89.86596535        1.59332907
      103.24453       91.74355549        1.58515519
      103.34423       86.52739271        1.52669191
      103.44392       90.30331267        1.68967968
      103.54361       89.16547115        1.63099548
      103.64331       86.08785753        1.45863575
      103.74300       81.08824772        1.35009923
      103.84269       80.73166047        1.32379129
      103.94239       83.00858933        1.61323269
      104.04208       81.32521821        1.54470375
      104.14177       81.53641668        1.50482012
      104.24147       77.39333698        1.46513079
      104.34116       81.03147248        1.50867238
      104.44085       79.78038048        1.70013165
      104.54055       79.96321570        1.54105593
      104.64024       81.17213001        1.45955509
      104.73993       77.60503154        1.36168293
      104.83963       75.40336590        1.29305169
      104.93932       73.18288999        1.54418645
      105.03901       74.33328829        1.46645698
      105.13871       70.29771117        1.37296100
      105.23840       69.03980733        1.35978024
      105.33809       65.97031764        1.33691101
      105.43779       62.50533876        1.51396338
      105.53748       63.23144398        1.36560587
      105.63717       59.29852042        1.21201704
      105.73687       57.96764929        1.14038678
      105.83656       56.23853153        1.09445334
      105.93626       54.02077882        1.35921698
      106.03595       52.87646858        1.21872873
      106.13564       50.20269486        1.14764565
      106.23534       50.45246618        1.16467470
      106.33503       51.09880303        1.18397921
      106.43472       48.43830826        1.36268004
      106.53442       48.75608860        1.18916053
      106.63411       46.59403216        1.05593164
      106.73380       49.31439693        1.03546393
      106.83350       49.46525770        1.02156922
      106.93319       48.91564926        1.31687519
      107.03288       47.66452845        1.15205382
      107.13258       50.68058182        1.15318668
      107.23227       49.50267254        1.15619953
      107.33196       50.77215197        1.16776914
      107.43166       52.64560784        1.42887192
      107.53135       55.14199465        1.26183086
      107.63104       56.83534279        1.16655264
      107.73074       59.23199536        1.14265345
      107.83043       61.26741233        1.14751269
      107.93012       63.34247873        1.54361281
      108.02982       63.39214834        1.35159342
      108.12951       67.59174491        1.32739786
      108.22920       65.34649554        1.28413591
      108.32890       69.42567796        1.31117845
      108.42859       69.73179109        1.66777164
      108.52828       70.33446436        1.42081485
      108.62798       73.61093266        1.31815066
      108.72767       74.80318489        1.27546421
      108.82736       76.59163405        1.31914186
      108.92706       74.20432794        1.64430249
      109.02675       75.69354882        1.45292802
      109.12644       78.20821450        1.44156802
      109.22614       73.07913727        1.39434096
      109.32583       72.95538494        1.51810444
      109.42552       73.63177092        1.60876031
      109.52522       71.40374416        1.42917806
      109.62491       71.36910447        1.35905808
      109.72461       66.17961908        1.25097753
      109.82430       64.26985654        1.15151607
      109.92399       62.28285600        1.47375643
      110.02369       60.32675764        1.27006403
      110.12338       58.27277970        1.24003249
      110.22307       56.52832998        1.21211599
      110.32277       59.12087536        1.26594817
      110.42246       54.99311509        1.48432620
      110.52215       54.45023043        1.25092667
      110.62185       52.39979812        1.15645128
      110.72154       51.28159017        1.06729759
      110.82123       51.86135991        1.10850067
      110.92093       51.88007364        1.29310760
      111.02062       52.36036955        1.20018026
      111.12031       52.05184752        1.20556091
      111.22001       52.48831038        1.18794441
      111.31970       54.17884800        1.30992334
      111.41939       55.45869156        1.37144513
      111.51909       55.44346608        1.24424761
      111.61878       56.82537245        1.18667780
      111.71847       58.74212766        1.12260959
      111.81817       61.95198031        1.25141261
      111.91786       68.48419358        1.38496502
      112.01755       66.69524688        1.33447563
      112.11725       72.13481036        1.39860681
      112.21694       72.65475836        1.39736026
      112.31663       73.58049619        1.54965089
      112.41633       75.63314547        1.54355932
      112.51602       76.49349660        1.42953207
      112.61571       82.54475122        1.41687684
      112.71541       85.34335707        1.35782759
      112.81510       88.16086353        1.54757524
      112.91479       87.94171897        1.57446872
      113.01449       88.93052524        1.55049793
      113.11418       86.69480222        1.52564754
      113.21387       91.75783067        1.56270251
      113.31357       93.56170811        1.75258905
      113.41326       90.36166091        1.63665317
      113.51296       91.64543800        1.55048578
      113.61265       95.81143395        1.52991299
      113.71234       89.53143292        1.41231611
      113.81204       90.57284371        1.62744414
      113.91173       94.01245305        1.60688400
      114.01142       88.65664435        1.54443352
      114.11112       83.64171434        1.49905710
      114.21081       87.72002007        1.54649407
      114.31050       84.73209031        1.72347703
      114.41020       85.50835963        1.59991034
      114.50989       80.64598718        1.45432143
      114.60958       82.03710276        1.41952525
      114.70928       74.84856730        1.30741246
      114.80897       74.91086927        1.48346705
      114.90866       71.64277655        1.36819071
      115.00836       71.13361811        1.35692367
      115.10805       70.77676175        1.36087097
      115.20774       70.84334408        1.38211805
      115.30744       70.36650223        1.58154806
      115.40713       71.42440509        1.44328368
      115.50682       72.14111496        1.36942501
      115.60652       70.68353275        1.30634491
      115.70621       72.11840680        1.26823467
      115.80590       75.18271766        1.51076632
      115.90560       72.32547914        1.34290162
      116.00529       74.89352112        1.38190674
      116.10498       81.68630583        1.45864346
      116.20468       83.49379052        1.50864683
      116.30437       88.97227093        1.85682082
      116.40406       87.02939702        1.59934875
      116.50376       94.83535175        1.57813345
      116.60345      101.97350987        1.57125927
      116.70314      109.68153382        1.58055382
      116.80284      121.04814431        1.97370124
      116.90253      127.76151833        1.82444187
      117.00222      136.26997438        1.86986693
      117.10192      140.07724378        1.94686139
      117.20161      149.82682884        2.03868042
      117.30131      150.08620174        2.44166140
      117.40100      157.42993774        2.10286720
      117.50069      167.85177642        2.06301894
      117.60039      171.62288910        1.99663472
      117.70008      176.29423296        1.96076176
      117.79977      185.78956306        2.46738352
      117.89947      189.26348508        2.16519268
      117.99916      192.72760750        2.21123995
      118.09885      191.33107388        2.24441358
      118.19855      195.48024856        2.37646720
      118.29824      201.49568337        2.64556782
      118.39793      201.70106260        2.40321118
      118.49763      199.52764282        2.25532887
      118.59732      202.47906014        2.19374454
      118.69701      199.30743523        2.26709492
      118.79671      196.39520869        2.42974057
      118.89640      190.68442104        2.23175552
      118.99609      185.66928064        2.19947056
      119.09579      181.73985030        2.20113402
      119.19548      176.75827586        2.37149071
      119.29517      169.98310578        2.41554785
      119.39487      172.83894123        2.23932788
      119.49456      157.42982887        2.01291896
      119.59425      153.75656258        1.93167374
      119.69395      146.09270057        1.98596635
      119.79364      137.18298211        1.94429527
      119.89333      134.04137577        1.85985073
      119.99303      132.20005287        1.80324492
      120.09272      131.78647050        1.84142876
      120.19241      127.95838059        2.03924576
      120.29211      125.16225860        1.99608230
      120.39180      122.22625755        1.88168737
      120.49149      119.71321235        1.73182671
      120.59119      119.06554942        1.67633662
      120.69088      120.05209120        1.81210835
      120.79057      116.61120887        1.74740012
      120.89027      116.40045500        1.71397595
      120.98996      116.37385652        1.70060767
      121.08966      115.75439945        1.70873525
      121.18935      117.60182396        1.97434914
      121.28904      115.72474523        1.90875451
      121.38874      116.78897030        1.81334985
      121.48843      119.43106336        1.73214976
      121.58812      120.47686271        1.65931224
      121.68782      116.13997807        1.80457277
      121.78751      116.82409708        1.72468232
      121.88720      122.59551695        1.74453452
      121.98690      122.35249865        1.75584783
      122.08659      117.43276783        1.75433068
      122.18628      117.43536087        2.03514991
      122.28598      122.24797630        1.95298455
      122.38567      120.02292880        1.85319553
      122.48536      116.64481296        1.72794921
      122.58506      116.87489714        1.63817645
      122.68475      113.11350695        1.82599300
      122.78444      112.31856323        1.71327351
      122.88414      111.96347400        1.69602172
      122.98383      105.69204663        1.68123172
      123.08352      100.91223699        1.62845570
      123.18322      101.34666309        1.90340769
      123.28291       99.57581536        1.71462049
      123.38260       97.10241195        1.63440594
      123.48230       96.93201343        1.57386888
      123.58199       94.63108839        1.45337119
      123.68168       94.49044385        1.65720615
      123.78138       90.57302483        1.46361744
      123.88107       90.49509215        1.42915789
      123.98076       84.81947950        1.40892980
      124.08046       89.07216569        1.42881943
      124.18015       88.01161834        1.60750919
      124.27984       84.99432390        1.41517033
      124.37954       80.29274576        1.29772541
      124.47923       78.40589619        1.25185102
      124.57893       74.48442687        1.29975931
