        5.04651       54.18764477        2.50960131
        5.14621       53.24428352        2.39740828
        5.24590       55.47788072        2.41227388
        5.34559       54.89092132        2.20067180
        5.44529       53.49136230        2.36329563
        5.54498       52.08068216        1.96146620
        5.64467       52.97998960        1.96109937
        5.74437       46.19770093        1.65267528
        5.84406       48.99027202        1.72248086
        5.94375       51.97938582        1.77205951
        6.04345       48.56438247        1.66416341
        6.14314       49.70259217        1.54154274
        6.24283       48.14993594        1.56727380
        6.34253       49.57884560        1.51695117
        6.44222       49.09567938        1.58946558
        6.54191       51.30103055        1.53934179
        6.64161       50.48922767        1.44665216
        6.74130       48.36517738        1.42150797
        6.84099       48.13251159        1.40780599
        6.94069       48.43043460        1.43343543
        7.04038       46.98878438        1.30325582
        7.14007       49.63524934        1.33680119
        7.23977       48.58786067        1.29944928
        7.33946       48.66616489        1.32040661
        7.43915       47.09409037        1.28188470
        7.53885       49.52138347        1.29036173
        7.63854       47.78333874        1.21138874
        7.73823       48.96972993        1.27342984
        7.83793       48.24497696        1.22312853
        7.93762       49.76991164        1.29597637
        8.03732       47.59513914        1.13650142
        8.13701       47.31881281        1.12807128
        8.23670       47.51224199        1.14633261
        8.33640       48.57013477        1.15938583
        8.43609       47.66346312        1.20068499
        8.53578       47.27672963        1.11380641
        8.63548       47.66473020        1.10552850
        8.73517       47.52653253        1.08287921
        8.83486       47.43878985        1.08451044
        8.93456       49.19219389        1.09876691
        9.03425       48.96497467        1.06411712
        9.13394       46.78263041        1.04201135
        9.23364       48.43811389        1.07583187
        9.33333       44.86415515        1.05632924
        9.43302       46.82640445        1.07965890
        9.53272       46.94603993        1.04451816
        9.63241       48.20145920        1.08835604
        9.73210       47.22194057        1.07504446
        9.83180       47.70093468        1.12587463
        9.93149       46.55786224        1.10429659
       10.03118       46.63428549        1.06341890
       10.13088       47.92044013        1.05220052
       10.23057       49.18653877        1.11637933
       10.33026       48.12944299        1.14145664
       10.42996       44.91177728        1.08740987
       10.52965       47.68979526        1.08529290
       10.62934       49.48604977        1.10826927
       10.72904       45.29647690        1.07584045
       10.82873       48.35988508        1.10614273
       10.92842       46.91283043        1.10767272
       11.02812       50.48972185        1.09492167
       11.12781       49.69958457        1.12525536
       11.22750       50.83254409        1.14939249
       11.32720       49.31134657        1.16245112
       11.42689       51.39459039        1.14566201
       11.52658       51.28661799        1.13081424
       11.62628       54.11857173        1.17433667
       11.72597       55.98309311        1.21984358
       11.82567       57.88239705        1.27494075
       11.92536       62.26977597        1.23769722
       12.02505       67.98662191        1.29954776
       12.12475       71.08176560        1.32773580
       12.22444       78.76225488        1.48239332
       12.32413       91.13734524        1.61953997
       12.42383      101.20398076        1.62031545
       12.52352      118.05931734        1.74000318
       12.62321      134.41186752        1.90994386
       12.72291      162.75994862        2.04652139
       12.82260      185.39541193        2.37521764
       12.92229      208.66229583        2.28946860
       13.02199      237.34605952        2.42352292
       13.12168      260.49471162        2.58349114
       13.22137      288.94729841        2.80994057
       13.32107      314.72404974        3.02756046
       13.42076      342.30164078        3.04010077
       13.52045      361.14467505        3.16055042
       13.62015      363.53803785        3.07294298
       13.71984      345.13096025        3.11946856
       13.81953      310.41466818        3.00709286
       13.91923      279.08267634        2.67817112
       14.01892      221.58775081        2.32224103
       14.11861      169.74877417        2.11969660
       14.21831      132.36779826        1.87303778
       14.31800      106.55078881        1.76875384
       14.41769       81.51416456        1.48932334
       14.51739       69.30537691        1.33961512
       14.61708       62.03690516        1.27051013
       14.71677       55.08939834        1.21660819
       14.81647       52.10980891        1.23946360
       14.91616       49.09513700        1.10627110
       15.01585       48.82283315        1.12308326
       15.11555       50.36621763        1.15398163
       15.21524       48.57239605        1.16790966
       15.31493       48.13082758        1.19060608
       15.41463       46.54711787        1.13358941
       15.51432       46.93314765        1.10302600
       15.61402       46.96400947        1.13133015
       15.71371       47.59060965        1.13105465
       15.81340       48.12543488        1.18324341
       15.91310       47.21971973        1.13879963
       16.01279       47.66013518        1.09547960
       16.11248       48.85840785        1.13899885
       16.21218       47.46429174        1.15368516
       16.31187       46.48756637        1.14450547
       16.41156       47.57556487        1.13630535
       16.51126       47.69837777        1.15701397
       16.61095       48.20037760        1.12150100
       16.71064       49.07781828        1.16747766
       16.81034       51.57487421        1.20053701
       16.91003       52.38039814        1.17501724
       17.00972       53.97483011        1.14511352
       17.10942       57.08596960        1.24484000
       17.20911       58.43105290        1.27058704
       17.30880       63.23499021        1.33346421
       17.40850       69.71127223        1.40004298
       17.50819       72.73875840        1.38877651
       17.60788       77.07457223        1.47416670
       17.70758       75.09273713        1.46098278
       17.80727       75.01497229        1.47825067
       17.90696       71.97098767        1.35365970
       18.00666       67.94618583        1.33817947
       18.10635       62.89026222        1.25204426
       18.20604       58.42790224        1.32370515
       18.30574       58.73994612        1.26496680
       18.40543       53.04867003        1.17215155
       18.50512       52.41348055        1.20185933
       18.60482       52.20930415        1.18069515
       18.70451       52.26303847        1.24835621
       18.80420       48.73422671        1.13231799
       18.90390       51.24298016        1.14880388
       19.00359       52.31852045        1.13049705
       19.10328       47.77377687        1.14274111
       19.20298       48.00945202        1.18121170
       19.30267       46.66726595        1.11831996
       19.40237       45.68834577        1.09396736
       19.50206       45.17095804        1.11508343
       19.60175       43.68996599        1.08429781
       19.70145       44.63173455        1.14921406
       19.80114       44.80377578        1.09206590
       19.90083       48.68305731        1.10004244
       20.00053       46.95899910        1.09949164
       20.10022       47.11013852        1.10944468
       20.19991       44.95387572        1.15856907
       20.29961       48.19109591        1.13671862
       20.39930       48.95909061        1.18038408
       20.49899       53.13712701        1.20853262
       20.59869       51.31054345        1.20921489
       20.69838       52.09809276        1.26342650
       20.79807       53.05018442        1.21605811
       20.89777       55.60010498        1.21688559
       20.99746       54.89800801        1.22117055
       21.09715       56.59725702        1.30611550
       21.19685       56.04292456        1.29290402
       21.29654       56.04115885        1.26120058
       21.39623       58.06754813        1.28395889
       21.49593       54.61509476        1.22725781
       21.59562       52.62314259        1.23359151
       21.69531       52.15639531        1.27737433
       21.79501       50.24959166        1.14690648
       21.89470       46.62288894        1.07974664
       21.99439       45.09117242        1.10682266
       22.09409       48.37479429        1.14938875
       22.19378       46.01842816        1.19044116
       22.29347       45.57423945        1.10332955
       22.39317       44.22351580        1.11495910
       22.49286       45.79549499        1.13375831
       22.59255       47.18352663        1.16440024
       22.69225       47.74341051        1.23432948
       22.79194       48.53089119        1.11767862
       22.89163       52.60498731        1.14105919
       22.99133       56.05202749        1.21066107
       23.09102       61.69158679        1.31932097
       23.19072       64.33208762        1.35056307
       23.29041       67.12424990        1.36251773
       23.39010       68.28364875        1.38868769
       23.48980       66.72619154        1.37766768
       23.58949       65.72422094        1.38557142
       23.68918       62.88512550        1.42505763
       23.78888       57.81384263        1.21750782
       23.88857       52.00282924        1.16957118
       23.98826       47.67493657        1.14468551
       24.08796       46.18377444        1.10463229
       24.18765       44.65430146        1.16379473
       24.28734       45.01901182        1.11257663
       24.38704       44.45821889        1.12408195
       24.48673       44.06716278        1.11510974
       24.58642       46.17603102        1.17933727
       24.68612       45.06013777        1.16341510
       24.78581       44.60205886        1.06698890
       24.88550       44.71879768        1.06795316
       24.98520       44.41624480        1.10369241
       25.08489       44.55859310        1.12753810
       25.18458       46.18860541        1.17215829
       25.28428       46.49894091        1.13355198
       25.38397       49.46454690        1.16358353
       25.48366       50.64261889        1.18445069
       25.58336       54.58873716        1.28192325
       25.68305       59.83549897        1.31653311
       25.78274       70.33606543        1.34759376
       25.88244       82.02078347        1.49236162
       25.98213      106.95378383        1.71913100
       26.08182      131.41110308        1.95653870
       26.18152      153.19977348        2.16435947
       26.28121      179.11733905        2.21473978
       26.38090      193.33596071        2.32085928
       26.48060      192.50373127        2.37958424
       26.58029      188.27362455        2.45510937
       26.67998      174.21823495        2.23030921
       26.77968      148.03511032        2.03063261
       26.87937      114.41525810        1.75847264
       26.97907       92.45331436        1.56690940
       27.07876       79.04083391        1.55956527
       27.17845       77.51110193        1.47589959
       27.27815       74.65960087        1.41440406
       27.37784       83.88952700        1.55816968
       27.47753       85.63614301        1.55112757
       27.57723       84.58042579        1.61477885
       27.67692       82.40875527        1.55569205
       27.77661       78.18360096        1.44613701
       27.87631       69.89148810        1.34429816
       27.97600       60.51273725        1.27873066
       28.07569       56.77769503        1.31084889
       28.17539       53.34875462        1.21631965
       28.27508       51.16676819        1.19163592
       28.37477       48.40305014        1.18647924
       28.47447       49.83453517        1.19455382
       28.57416       51.19576233        1.30903861
       28.67385       52.32372458        1.17743144
       28.77355       52.86455971        1.16216004
       28.87324       54.97722818        1.21680329
       28.97293       57.91614658        1.25194337
       29.07263       58.62631975        1.37305597
       29.17232       55.53864141        1.21945813
       29.27201       56.66296934        1.25455158
       29.37171       52.67866408        1.24420145
       29.47140       52.41211995        1.22672333
       29.57109       51.20352219        1.28568471
       29.67079       49.39294365        1.14952396
       29.77048       45.25553187        1.10271851
       29.87017       47.41272659        1.10662493
       29.96987       46.61135255        1.15044722
       30.06956       47.45470147        1.19762114
       30.16925       45.79731830        1.10770250
       30.26895       46.90247439        1.12531418
       30.36864       47.15492951        1.14678769
       30.46833       49.86427442        1.19133414
       30.56803       53.20979476        1.30012364
       30.66772       56.56496550        1.24755935
       30.76742       57.70798569        1.23491177
       30.86711       61.70454236        1.30257282
       30.96680       63.56806925        1.32981619
       31.06650       59.83501390        1.35264288
       31.16619       60.56257137        1.27955545
       31.26588       58.07607003        1.24538476
       31.36558       56.18527176        1.24090837
       31.46527       59.74401945        1.33161217
       31.56496       61.05862189        1.36786044
       31.66466       64.07522503        1.31055067
       31.76435       71.49605804        1.38324512
       31.86404       78.67662165        1.43224975
       31.96374       85.34550194        1.52659577
       32.06343       86.69059249        1.59223555
       32.16312       85.56048749        1.48652662
       32.26282       84.26008622        1.51122478
       32.36251       76.18319093        1.49412451
       32.46220       74.81677992        1.50723006
       32.56190       69.19166427        1.47493607
       32.66159       66.45758712        1.37261150
       32.76128       63.19581922        1.30833404
       32.86098       64.69000844        1.34366431
       32.96067       61.40124350        1.32531253
       33.06036       59.73952740        1.33103255
       33.16006       58.49720457        1.24035415
       33.25975       57.69108671        1.27175921
       33.35944       54.33174627        1.24071848
       33.45914       56.79705690        1.31692088
       33.55883       57.28441850        1.32567541
       33.65852       59.64263605        1.26145635
       33.75822       67.19523983        1.33692844
       33.85791       73.80706964        1.40709197
       33.95760       79.53147106        1.50392576
       34.05730       93.56351666        1.61593839
       34.15699      103.98697124        1.67678951
       34.25668      122.04898877        1.81089631
       34.35638      147.12222498        2.04042832
       34.45607      191.52381400        2.45383831
       34.55577      229.26224403        2.55901508
       34.65546      294.85836589        2.78514820
       34.75515      371.94348498        3.19015483
       34.85485      424.35662348        3.38248757
       34.95454      446.74022732        3.58015857
       35.05423      427.84680526        3.62237507
       35.15393      392.59681662        3.25843929
       35.25362      317.13553774        2.97198602
       35.35331      246.68719411        2.68780818
       35.45301      187.55006668        2.44409755
       35.55270      143.25562493        2.07882623
       35.65239      110.01642486        1.75860397
       35.75209       85.25027767        1.53590273
       35.85178       78.17425967        1.46862626
       35.95147       73.51973034        1.45761446
       36.05117       67.90142800        1.37176340
       36.15086       65.71037748        1.29747753
       36.25055       63.72567308        1.33486408
       36.35025       61.64058844        1.33847416
       36.44994       58.57311333        1.33069383
       36.54963       57.01809864        1.26027621
       36.64933       56.54686232        1.23631152
       36.74902       56.61287549        1.24996361
       36.84871       54.55422287        1.21808653
       36.94841       54.38768038        1.31526789
       37.04810       50.49749768        1.11733619
       37.14779       52.80194904        1.16607010
       37.24749       50.42034356        1.17106787
       37.34718       46.88668159        1.15794906
       37.44687       46.55858038        1.23949234
       37.54657       49.01068348        1.16109164
       37.64626       46.14185224        1.12216389
       37.74595       50.06271760        1.15075263
       37.84565       48.21899723        1.19489126
       37.94534       44.32581468        1.16695528
       38.04503       46.54496077        1.08088860
       38.14473       47.22225102        1.09941990
       38.24442       49.58467263        1.14727040
       38.34412       48.69891197        1.18865655
       38.44381       49.70717877        1.29856806
       38.54350       50.21934396        1.16352794
       38.64320       47.97700640        1.13371840
       38.74289       50.67593778        1.18052194
       38.84258       55.11064865        1.23426286
       38.94228       55.14216281        1.29494962
       39.04197       60.75619093        1.22590073
       39.14166       65.52479019        1.32455064
       39.24136       69.93627930        1.36491123
       39.34105       71.80908960        1.43137141
       39.44074       68.53568081        1.52510681
       39.54044       68.79921709        1.36628093
       39.64013       68.62821402        1.36041396
       39.73982       67.62512427        1.35587313
       39.83952       62.69321966        1.29646440
       39.93921       61.09274358        1.35694243
       40.03890       59.51221028        1.22586143
       40.13860       56.65733046        1.19443401
       40.23829       56.89184129        1.23925813
       40.33798       57.31161531        1.28261400
       40.43768       52.88379667        1.28888140
       40.53737       58.12722835        1.25438225
       40.63706       58.42462095        1.28400480
       40.73676       57.47695669        1.27148349
       40.83645       59.73069955        1.30709549
       40.93614       61.71232135        1.35095052
       41.03584       66.14436049        1.31638455
       41.13553       76.16613353        1.41456903
       41.23522       92.64798438        1.59865151
       41.33492      114.73212844        1.86316038
       41.43461      135.42787140        2.08979358
       41.53430      161.81958842        2.14025687
       41.63400      195.28378687        2.40412010
       41.73369      207.45215470        2.42394425
       41.83338      212.39656175        2.51823812
       41.93308      216.98143363        2.52292472
       42.03277      223.41860289        2.34022495
       42.13247      247.51387641        2.58993055
       42.23216      297.21989743        2.84526765
       42.33185      360.39289358        3.36537329
       42.43155      408.60849841        3.53033903
       42.53124      482.95696172        3.71907186
       42.63093      521.07856906        3.87022456
       42.73063      533.26150638        3.93231304
       42.83032      526.42682131        3.97677904
       42.93001      492.55719544        3.70177072
       43.02971      423.14719575        3.23984138
       43.12940      333.95481772        2.93425305
       43.22909      257.54198564        2.70669347
       43.32879      200.47123271        2.51451471
       43.42848      153.11475815        2.14800002
       43.52817      112.08379425        1.75712905
       43.62787       86.24749453        1.53550770
       43.72756       72.86661068        1.44441539
       43.82725       64.33093236        1.41687826
       43.92695       61.50955344        1.25630099
       44.02664       58.93568599        1.22378040
       44.12633       57.46208602        1.25337647
       44.22603       54.55442660        1.27103088
       44.32572       55.87478302        1.35579550
       44.42541       53.92312867        1.27155341
       44.52511       55.22104936        1.25221220
       44.62480       55.46192343        1.27269091
       44.72449       57.63025100        1.25730883
       44.82419       60.39160229        1.44435657
       44.92388       66.49873288        1.26426733
       45.02357       72.97630832        1.33543890
       45.12327       87.84820919        1.50971244
       45.22296      105.35281281        1.69740969
       45.32265      127.14296347        2.06353465
       45.42235      148.71408756        2.03266859
       45.52204      182.98413948        2.23352737
       45.62174      206.97681401        2.41930735
       45.72143      227.60307648        2.53761359
       45.82112      234.93693097        2.82240921
       45.92082      238.69670201        2.41539114
       46.02051      230.59289231        2.42414057
       46.12020      229.96203981        2.42902463
       46.21990      217.06159595        2.47939146
       46.31959      201.34506650        2.57810326
       46.41928      176.32492025        2.22729518
       46.51898      151.22820576        2.07333512
       46.61867      119.53774716        1.83280300
       46.71836       96.97298320        1.69240516
       46.81806       81.61736121        1.60942007
       46.91775       69.33276622        1.29260302
       47.01744       63.64972883        1.26784081
       47.11714       64.57058725        1.30618492
       47.21683       72.65992685        1.42673092
       47.31652       79.14545922        1.62470429
       47.41622       87.39178399        1.60910663
       47.51591      102.31851644        1.74481904
       47.61560      116.62101851        1.84756122
       47.71530      136.54716325        2.02150789
       47.81499      144.66832948        2.13308370
       47.91468      163.89898561        1.98696537
       48.01438      176.32332551        2.06230630
       48.11407      176.39876121        2.13973750
       48.21376      176.57216724        2.23516022
       48.31346      174.80670803        2.30326719
       48.41315      155.36477316        2.02302778
       48.51284      139.89792399        1.98307219
       48.61254      124.43494359        1.86226850
       48.71223      107.23436922        1.75962424
       48.81192       91.35340381        1.61974698
       48.91162       76.70996700        1.33012705
       49.01131       64.46646083        1.26172558
       49.11100       56.34398698        1.22178550
       49.21070       54.27685583        1.25891664
       49.31039       53.79387803        1.28986678
       49.41009       51.81569253        1.19582763
       49.50978       50.35022422        1.20312650
       49.60947       48.57219846        1.19026816
       49.70917       48.55271662        1.23415483
       49.80886       48.41286503        1.19940129
       49.90855       49.66808744        1.10669977
       50.00825       49.54831871        1.12870700
       50.10794       52.09499092        1.18379574
       50.20763       49.32614360        1.20335867
       50.30733       52.19454629        1.29676726
       50.40702       50.83582729        1.20007467
       50.50671       55.32594830        1.25582748
       50.60641       53.68003468        1.23868676
       50.70610       56.05232675        1.30253083
       50.80579       58.11607644        1.30888557
       50.90549       56.54370686        1.16393342
       51.00518       53.97811409        1.14719975
       51.10487       55.50478755        1.20256840
       51.20457       54.26945142        1.26585987
       51.30426       55.16108932        1.26961767
       51.40395       58.36672909        1.25215526
       51.50365       57.99839909        1.26243752
       51.60334       59.13852647        1.30001370
       51.70303       60.32751416        1.39440898
       51.80273       59.97366120        1.27527722
       51.90242       60.42029864        1.19595126
       52.00211       59.97023097        1.19710417
       52.10181       63.25926181        1.26855390
       52.20150       63.19225849        1.39628060
       52.30119       63.23871016        1.34553216
       52.40089       62.95848566        1.32151217
       52.50058       60.36460232        1.31832824
       52.60027       59.50870602        1.32678703
       52.69997       60.78752400        1.46964617
       52.79966       62.62186504        1.25416227
       52.89935       63.46815254        1.21830242
       52.99905       71.43444329        1.31392809
       53.09874       82.88231053        1.46136457
       53.19844       95.52300953        1.79708506
       53.29813      107.57169923        1.69517920
       53.39782      123.25696959        1.87779800
       53.49752      130.06352353        1.93781571
       53.59721      142.70407010        2.02884125
       53.69690      150.02398123        2.28289971
       53.79660      154.08744360        1.93824479
       53.89629      154.66181688        1.92095174
       53.99598      145.18754519        1.90616281
       54.09568      132.43184319        1.90047849
       54.19537      124.34984818        2.00815320
       54.29506      116.00498502        1.78161798
       54.39476      104.79974490        1.70605478
       54.49445       93.84449114        1.61509965
       54.59414       90.94261978        1.61407343
       54.69384       87.78160288        1.69156903
       54.79353       87.65893342        1.44958899
       54.89322       82.88598185        1.40428900
       54.99292       80.23580404        1.42201618
       55.09261       75.60902968        1.43535090
       55.19230       69.98130896        1.48268196
       55.29200       66.21276953        1.34218604
       55.39169       62.43413599        1.34466002
       55.49138       59.00874647        1.30227055
       55.59108       58.16389599        1.33435304
       55.69077       54.96965634        1.33112629
       55.79046       54.66130277        1.16049715
       55.89016       57.11363668        1.18351205
       55.98985       56.35979003        1.18318030
       56.08954       60.79546444        1.26954826
       56.18924       65.88159603        1.42649678
       56.28893       71.73763281        1.36257113
       56.38862       80.54540727        1.49377732
       56.48832       92.74438504        1.63098743
       56.58801      104.79383442        1.78437136
       56.68770      111.61624696        1.90094486
       56.78740      115.66052470        1.65626544
       56.88709      114.63498505        1.66530878
       56.98679      108.57678560        1.62190887
       57.08648       97.38485120        1.62783044
       57.18617       86.62780241        1.58927594
       57.28587       75.64867423        1.38722947
       57.38556       66.79826962        1.38734361
       57.48525       59.99449186        1.33981335
       57.58495       55.72249502        1.32067316
       57.68464       53.53685536        1.30572760
       57.78433       54.89121638        1.15667275
       57.88403       50.85430853        1.12614692
       57.98372       52.85575169        1.16645780
       58.08341       51.11194002        1.24015604
       58.18311       52.55097153        1.28639798
       58.28280       53.63233252        1.22409344
       58.38249       53.74852067        1.28045244
       58.48219       54.18380490        1.31340816
       58.58188       52.93894766        1.31237334
       58.68157       54.83089223        1.30887969
       58.78127       52.53150799        1.12052683
       58.88096       55.38356946        1.13368075
       58.98065       56.88635340        1.19277022
       59.08035       56.72179151        1.27089570
       59.18004       56.11982972        1.28231430
       59.27973       58.28630623        1.23306386
       59.37943       63.03848006        1.32482382
       59.47912       67.28201366        1.42497804
       59.57881       70.29323788        1.52594755
       59.67851       75.25259120        1.47218442
       59.77820       81.80061719        1.41124599
       59.87789       92.29925422        1.49417809
       59.97759      100.75156906        1.63337893
       60.07728      105.54634735        1.81061393
       60.17697      107.59381428        1.74156641
       60.27667      105.46485936        1.67623847
       60.37636      108.18164545        1.73078742
       60.47605      104.55480013        1.77489473
       60.57575       97.94703154        1.88235112
       60.67544       91.78725303        1.56525099
       60.77514       86.41517871        1.44367822
       60.87483       77.97651731        1.34447044
       60.97452       73.29534954        1.37306235
       61.07422       70.36085471        1.51116013
       61.17391       67.95198950        1.28631585
       61.27360       67.75818595        1.33008348
       61.37330       67.15188312        1.37319760
       61.47299       68.19301756        1.44467017
       61.57268       68.20715742        1.64301777
       61.67238       74.18244346        1.39681400
       61.77207       69.60373324        1.31752985
       61.87176       69.40869994        1.30101487
       61.97146       70.43197003        1.36070085
       62.07115       67.19381925        1.50507078
       62.17084       67.18807216        1.31857190
       62.27054       65.03728355        1.35256898
       62.37023       66.41228982        1.42131056
       62.46992       63.71672242        1.43974577
       62.56962       69.09387677        1.68421922
       62.66931       68.41900417        1.35011821
       62.76900       77.25947427        1.39878213
       62.86870       84.10580498        1.42788562
       62.96839       90.26721093        1.52670012
       63.06808       96.00548173        1.75241556
       63.16778      106.57145587        1.63945706
       63.26747      111.54041880        1.73584640
       63.36716      116.55738652        1.84169623
       63.46686      119.92381279        1.92425233
       63.56655      126.17273711        2.09720521
       63.66624      135.84384382        1.85006396
       63.76594      148.18192148        1.87753507
       63.86563      162.00165807        1.95778082
       63.96532      168.46587859        2.08938966
       64.06502      175.63896133        2.28602658
       64.16471      173.92732547        2.10411111
       64.26440      162.17880439        2.11449138
       64.36410      149.61653512        2.07139049
       64.46379      133.42067186        2.06785615
       64.56349      123.52611169        2.02472417
       64.66318      103.00960677        1.61742628
       64.76287       85.85540449        1.45776806
       64.86257       73.18379249        1.34340324
       64.96226       63.88231951        1.31436191
       65.06195       59.54153878        1.37193538
       65.16165       53.82409747        1.17645759
       65.26134       54.68110013        1.21358869
       65.36103       54.66333834        1.26614844
       65.46073       53.24644185        1.29062428
       65.56042       53.84373870        1.35554598
       65.66011       56.20573077        1.20772638
       65.75981       56.27236634        1.19635495
       65.85950       60.39502733        1.23166824
       65.95919       60.88835307        1.29456396
       66.05889       65.48510502        1.38886105
       66.15858       69.76723195        1.36335402
       66.25827       77.04927399        1.48199260
       66.35797       87.16120327        1.64242719
       66.45766       99.81836153        1.86810488
       66.55735      110.13291063        1.96210531
       66.65705      127.40485645        1.87273452
       66.75674      138.00669216        1.89962598
       66.85643      155.14227248        1.99202553
       66.95613      163.94822737        2.12954810
       67.05582      166.00538580        2.15896077
       67.15551      166.44148485        2.05722680
       67.25521      162.29898261        2.13214260
       67.35490      152.68169963        2.17670787
       67.45459      136.58290936        2.17049826
       67.55429      122.13491225        1.96600113
       67.65398      101.45095125        1.60536017
       67.75367       88.86622671        1.48984270
       67.85337       80.62307178        1.43627325
       67.95306       77.02229641        1.50100588
       68.05275       75.07975588        1.40315606
       68.15245       83.41664200        1.46663859
       68.25214       90.14217552        1.61845520
       68.35184       95.13330207        1.73292197
       68.45153       98.93030685        1.94548073
       68.55122      106.11722130        1.73604455
       68.65092      119.58307073        1.71835645
       68.75061      123.28233883        1.76281276
       68.85030      126.93302576        1.82332913
       68.95000      126.40274103        2.06287453
       69.04969      127.69157952        1.75115740
       69.14938      112.21060127        1.68728502
       69.24908      101.12291045        1.71014699
       69.34877       91.56679323        1.68276915
       69.44846       86.06988161        1.89223153
       69.54816       76.45243265        1.39013515
       69.64785       66.52138178        1.27812590
       69.74754       60.52046069        1.23118616
       69.84724       52.38454198        1.17501473
       69.94693       51.50027776        1.31481447
       70.04662       50.32840136        1.06881927
       70.14632       49.33442491        1.10035915
       70.24601       46.24449884        1.14057343
       70.34570       44.65118647        1.18590475
       70.44540       47.55991480        1.44221760
       70.54509       47.23869046        1.12504127
       70.64478       48.38631858        1.13705193
       70.74448       49.77408887        1.17157899
       70.84417       50.40446526        1.22342974
       70.94386       47.66646798        1.30587174
       71.04356       51.63780741        1.12487769
       71.14325       51.86861278        1.17156598
       71.24294       54.25312322        1.26079820
       71.34264       53.51088101        1.32766838
       71.44233       52.10965621        1.46193617
       71.54202       53.29277858        1.20368468
       71.64172       56.83583912        1.20932709
       71.74141       54.44937062        1.16208876
       71.84110       52.01793154        1.17567852
       71.94080       50.51505304        1.26241340
       72.04049       51.82262831        1.08229886
       72.14019       50.56396386        1.11382420
       72.23988       53.39676273        1.19772680
       72.33957       52.78048640        1.33009659
       72.43927       54.22425001        1.48413597
       72.53896       51.90683985        1.16415582
       72.63865       53.53776255        1.15571431
       72.73835       55.32452867        1.14907516
       72.83804       57.27447593        1.23466389
       72.93773       60.36798992        1.34658311
       73.03743       61.07687998        1.17571976
       73.13712       60.17512367        1.23065889
       73.23681       64.83422107        1.34225788
       73.33651       64.14882178        1.46909367
       73.43620       62.79005740        1.57421904
       73.53589       63.85660659        1.28069374
       73.63559       66.77073920        1.28915807
       73.73528       64.41616443        1.26036624
       73.83497       64.40132007        1.33604111
       73.93467       64.79720990        1.41119230
       74.03436       63.98595027        1.24102271
       74.13405       62.82861293        1.28197922
       74.23375       63.90902475        1.34684934
       74.33344       63.88848191        1.48245685
       74.43313       63.41949164        1.53260646
       74.53283       65.28471033        1.32125904
       74.63252       67.61985881        1.33504418
       74.73221       72.73124072        1.37805368
       74.83191       74.24402883        1.47702072
       74.93160       78.77388990        1.53877602
       75.03129       81.32195124        1.39005306
       75.13099       86.66985431        1.48662710
       75.23068       90.08196053        1.58099577
       75.33037       96.86217191        1.80238005
       75.43007      103.89610897        1.89395770
       75.52976      110.88183338        1.69974223
       75.62945      118.11917144        1.75307830
       75.72915      126.59642274        1.80808015
       75.82884      137.99002887        2.03308159
       75.92854      135.82482918        1.89327513
       76.02823      144.87373314        1.83431492
       76.12792      153.47858930        1.97387308
       76.22762      151.87428167        2.07148516
       76.32731      149.56804316        2.32147792
       76.42700      150.76316069        2.19988979
       76.52670      148.20079078        2.01202898
       76.62639      137.80141566        1.91500157
       76.72608      129.12321706        1.82250601
       76.82578      126.28332508        2.07667178
       76.92547      124.48163201        1.65138958
       77.02516      120.95315743        1.68695752
       77.12486      122.76653648        1.78545350
       77.22455      128.53316554        1.94559683
       77.32424      129.69812094        2.40106426
       77.42394      133.01046815        1.94168988
       77.52363      134.15747869        1.88442205
       77.62332      141.11530027        1.92424031
       77.72302      141.99523834        1.93459233
       77.82271      146.47744979        2.30463498
       77.92240      151.13917948        1.79288875
       78.02210      148.16448475        1.91526460
       78.12179      146.96455570        2.03724282
       78.22148      141.37474762        2.11258813
       78.32118      136.60440780        2.40931088
       78.42087      126.40954065        1.82346846
       78.52056      120.21021995        1.83599001
       78.62026      114.24781603        1.77556047
       78.71995      108.46483961        1.73558794
       78.81964       97.63016586        1.83864866
       78.91934       92.52136087        1.38674732
       79.01903       82.71921962        1.43715115
       79.11872       74.78787574        1.42180747
       79.21842       70.50480949        1.47248409
       79.31811       69.13157931        1.64234101
       79.41780       66.14433665        1.30304022
       79.51750       65.24627207        1.31497096
       79.61719       63.15666830        1.29745442
       79.71689       66.49350192        1.38235458
       79.81658       66.37723838        1.46407130
       79.91627       63.62345340        1.21488797
       80.01597       63.48106382        1.24732360
       80.11566       62.15345913        1.29013905
       80.21535       65.05009693        1.41101156
       80.31505       68.44771141        1.72080649
       80.41474       66.17943437        1.30009633
       80.51443       67.14617810        1.30386504
       80.61413       74.37700219        1.41813725
       80.71382       78.46750139        1.50700852
       80.81351       82.93544788        1.74117064
       80.91321       90.99132426        1.34520235
       81.01290      105.67262303        1.56555948
       81.11259      123.17885982        1.82515074
       81.21229      140.40025288        2.10843258
       81.31198      152.85934361        2.45462099
       81.41167      172.87175476        2.04465023
       81.51137      195.79465964        2.23955570
       81.61106      208.97513027        2.41632253
       81.71075      224.92258278        2.59531077
       81.81045      231.17347344        2.78751716
       81.91014      258.74566091        2.26914242
       82.00983      274.02792212        2.49664934
       82.10953      284.34166083        2.84554743
       82.20922      286.41856570        3.17603334
       82.30891      290.55702917        3.35449788
       82.40861      297.94990026        2.76298825
       82.50830      287.32840649        2.70528287
       82.60799      291.44631730        2.93539523
       82.70769      288.87533160        3.18010434
       82.80738      288.19489228        3.03484273
       82.90707      282.97773875        2.44168436
       83.00677      273.35856391        2.55653411
       83.10646      260.83462208        2.93765460
       83.20615      250.41685294        3.20334864
       83.30585      244.39797305        2.99797945
       83.40554      220.67037462        2.36715514
       83.50524      202.71379605        2.21315548
       83.60493      185.23469432        2.32997494
       83.70462      171.27604664        2.52582000
       83.80432      152.56477642        2.08244421
       83.90401      133.64251207        1.63437509
       84.00370      110.94951537        1.55238967
       84.10340       98.71936242        1.74941572
       84.20309       83.82036616        1.95620397
       84.30278       81.23792544        1.56621101
       84.40248       73.32492223        1.31295098
       84.50217       69.73687966        1.25602551
       84.60186       67.05257132        1.39252973
       84.70156       67.54966706        1.82902373
       84.80125       66.32383038        1.26173729
       84.90094       64.72884601        1.11966678
       85.00064       62.69973846        1.13528464
       85.10033       63.82323063        1.35561899
       85.20002       63.03796288        2.31061213
       85.29972       65.86350082        1.24600324
       85.39941       66.64019062        1.27786119
       85.49910       64.73175522        1.22468122
       85.59880       68.08518909        1.41249709
       85.69849       65.66993076        2.49032422
       85.79818       66.40272782        1.18066228
       85.89788       63.73072965        1.12892136
       85.99757       63.33282721        1.15632652
       86.09726       62.38700168        1.31763889
       86.19696       63.94594000        2.56229030
       86.29665       63.42045455        1.20753312
       86.39634       63.32920347        1.22760178
       86.49604       60.35670488        1.18019756
       86.59573       58.88410065        1.24198511
       86.69542       56.11884956        2.53478651
       86.79512       54.91354870        1.04080808
       86.89481       55.49985545        1.03162611
       86.99451       54.02810653        1.05499668
       87.09420       54.17914662        1.17825785
       87.19389       52.58313987        2.74946239
       87.29359       51.82533256        1.10619516
       87.39328       49.32420787        1.09365612
       87.49297       49.82707444        1.06710797
       87.59267       50.57695872        1.09627795
       87.69236       49.26432003        3.23738702
       87.79205       50.25793690        1.01864058
       87.89175       48.86919233        0.99633267
       87.99144       50.50441159        1.05547995
       88.09113       50.67056358        1.12369885
       88.19083       52.69474956        6.06435287
       88.29052       51.11418713        1.13573674
       88.39021       50.31111615        1.13425797
       88.48991       49.81260422        1.08314123
       88.58960       50.39275826        1.05504082
       88.68929       54.18601725        8.47621159
       88.78899       49.88391068        1.01318925
       88.88868       49.52776455        0.98750424
       88.98837       51.86239393        1.05111100
       89.08807       48.32609153        1.03914288
       89.18776       53.65285629        8.91051995
       89.28745       48.95649237        1.06266770
       89.38715       51.47156268        1.10091193
       89.48684       52.48165041        1.08791412
       89.58653       58.01008618        1.12075990
       89.68623       52.82689872        8.66879107
       89.78592       60.83833502        1.11535832
       89.88561       61.65767555        1.10082988
       89.98531       64.98137897        1.15893833
       90.08500       70.04479674        1.24814198
       90.18469       75.80620345       10.83147960
       90.28439       74.93719609        1.31870597
       90.38408       78.03264677        1.36837311
       90.48377       86.05092100        1.41033865
       90.58347       89.16537868        1.41318619
       90.68316       86.04099698       10.81221841
       90.78286       89.47132609        1.35506350
       90.88255       96.93660039        1.37278201
       90.98224       97.33526824        1.42325577
       91.08194      100.36223388        1.49278988
       91.18163       90.79876268       11.32646323
       91.28132      100.06036262        1.53464227
       91.38102       99.22993985        1.56877305
       91.48071       95.25187926        1.49908219
       91.58040       88.50861219        1.39721326
       91.68010       84.49754344       10.32663553
       91.77979       86.83803714        1.32848238
       91.87948       83.71558580        1.28410014
       91.97918       77.44205763        1.28220353
       92.07887       76.25237779        1.32529769
       92.17856       60.35763310        8.96019033
       92.27826       79.94499921        1.40169648
       92.37795       73.35440362        1.37420960
       92.47764       72.46772735        1.29658909
       92.57734       76.32356341        1.29102911
       92.67703       85.59549166        8.87774160
       92.77672       80.43862209        1.27757786
       92.87642       85.77828815        1.29434928
       92.97611       84.55047582        1.34179204
       93.07580       92.35413677        1.60096102
       93.17550       88.27182445        2.94272896
       93.27519       91.47943729        1.46859154
       93.37488       92.35531703        1.43443679
       93.47458       97.27308146        1.48857482
       93.57427       99.41738303        1.73997425
       93.67396       98.05734264        2.33517621
       93.77366       99.17437526        1.45487373
       93.87335       97.52157732        1.37798032
       93.97304       93.69174950        1.40736390
       94.07274       89.48517667        1.78542432
       94.17243       89.89929647        2.04194293
       94.27212       89.97493360        1.52151567
       94.37182       90.57444752        1.48783080
       94.47151       85.38874923        1.38321925
       94.57121       86.53855173        1.83784774
       94.67090       83.52111143        1.82623888
       94.77059       81.58358102        1.40300801
       94.87029       77.43166017        1.24274195
       94.96998       71.55272740        1.20952261
       95.06967       69.66017122        1.37566890
       95.16937       67.26436396        1.85033682
       95.26906       63.88796374        1.39293092
       95.36875       65.15978521        1.27652040
       95.46845       60.65729958        1.18346232
       95.56814       60.05036798        1.35494401
       95.66783       57.33606323        1.48727578
       95.76753       57.91101713        1.23520490
       95.86722       55.60562274        1.02947835
       95.96691       54.35375885        1.05569373
       96.06661       53.48383942        1.34145872
       96.16630       50.16564675        1.38528071
       96.26599       49.27757307        1.23297268
       96.36569       50.72517441        1.12251044
       96.46538       49.31102341        1.06806104
       96.56507       46.72831060        1.28316236
       96.66477       46.32780549        1.24496251
       96.76446       48.51427259        1.13855954
       96.86415       46.69366651        0.96746970
       96.96385       47.69279280        1.00991464
       97.06354       48.23731860        1.37341148
       97.16323       47.84762772        1.30786551
       97.26293       48.77539514        1.24063524
       97.36262       49.52333953        1.15767337
       97.46231       48.73672243        1.05651757
       97.56201       51.59132018        1.38309034
       97.66170       50.77339468        1.23235150
       97.76139       51.57375768        1.12839818
       97.86109       55.23900312        1.05612432
       97.96078       53.56299384        1.06263373
       98.06047       54.96786972        1.49528330
       98.16017       56.23965645        1.34460111
       98.25986       55.32990862        1.27386213
       98.35956       56.72580722        1.21777614
       98.45925       61.36141810        1.18239265
       98.55894       65.91575122        1.59885052
       98.65864       63.30090126        1.34422430
       98.75833       66.14013549        1.28398284
       98.85802       69.11975893        1.22571110
       98.95772       71.62876646        1.23953958
       99.05741       71.67161917        1.72130156
       99.15710       73.34543081        1.49758793
       99.25680       74.58666389        1.46316479
       99.35649       79.38996750        1.43796567
       99.45618       80.36068793        1.34826640
       99.55588       83.76699255        1.83953609
       99.65557       87.73360079        1.55332708
       99.75526       87.45522459        1.45355696
       99.85496       86.92312586        1.37922192
       99.95465       85.29288412        1.33934468
      100.05434       86.81945852        1.92510485
      100.15404       86.48319466        1.61834083
      100.25373       86.35968729        1.59781050
      100.35342       86.01393239        1.58835700
      100.45312       84.87024885        1.43965203
      100.55281       86.38999433        1.90780842
      100.65250       86.39390830        1.55425177
      100.75220       79.37024486        1.37957373
      100.85189       81.29272237        1.33414506
      100.95158       79.04219871        1.28029796
      101.05128       78.65428249        1.82081192
      101.15097       76.95581047        1.48843502
      101.25066       78.56536992        1.48597455
      101.35036       78.14494923        1.49481850
      101.45005       75.45890678        1.38117315
      101.54974       76.28265831        1.72971215
      101.64944       76.17241242        1.41020401
      101.74913       73.95504896        1.30913248
      101.84882       77.43986531        1.30417387
      101.94852       79.46992238        1.39176176
      102.04821       77.38894821        1.65411930
      102.14791       81.11162629        1.52637474
      102.24760       80.04656487        1.50345885
      102.34729       79.26958823        1.48999777
      102.44699       84.23947468        1.56297462
      102.54668       81.33894940        1.61141368
      102.64637       83.75758032        1.46055469
      102.74607       87.67082449        1.42330462
      102.84576       86.37815997        1.38588312
      102.94545       87.50886575        1.58881246
      103.04515       86.92446575        1.67629825
      103.14484       83.79939648        1.53759473
      103.24453       83.27379834        1.50908990
      103.34423       85.86723687        1.52014288
      103.44392       84.83835285        1.63670884
      103.54361       86.36111412        1.60426792
      103.64331       87.11232086        1.46668713
      103.74300       87.45324011        1.40177385
      103.84269       85.67699141        1.36336228
      103.94239       83.99166606        1.62208912
      104.04208       82.81624302        1.55818564
      104.14177       81.82574679        1.50683004
      104.24147       83.29540946        1.51960711
      104.34116       83.20858269        1.52823965
      104.44085       80.55009484        1.70759685
      104.54055       78.81224034        1.52917995
      104.64024       75.55266783        1.40722052
      104.73993       76.24659829        1.34904540
      104.83963       72.97826267        1.27141176
      104.93932       72.88471606        1.54033295
      105.03901       71.57000640        1.43815912
      105.13871       69.09953957        1.36054466
      105.23840       69.52945290        1.36400745
      105.33809       69.37355775        1.37051280
      105.43779       69.07656617        1.59121359
      105.53748       67.14247445        1.40677011
      105.63717       67.65748871        1.29442931
      105.73687       64.85748385        1.20600891
      105.83656       61.72666510        1.14632129
      105.93626       62.06295702        1.45664371
      106.03595       60.27737834        1.30098391
      106.13564       58.81426068        1.24200415
      106.23534       57.55231456        1.24368141
      106.33503       54.57757394        1.22322045
      106.43472       53.59681371        1.43302406
      106.53442       54.23396454        1.25386624
      106.63411       53.42841100        1.13049072
      106.73380       52.85864484        1.07168219
      106.83350       53.00518760        1.05715014
      106.93319       54.09690914        1.38449652
      107.03288       55.05210176        1.23788630
      107.13258       56.49730328        1.21727122
      107.23227       56.70742578        1.23724109
      107.33196       54.16157137        1.20572252
      107.43166       57.80993384        1.49691856
      107.53135       56.55889536        1.27743194
      107.63104       59.72976151        1.19547504
      107.73074       61.50791936        1.16397181
      107.83043       60.08343087        1.13581549
      107.93012       65.49138210        1.56899522
      108.02982       65.03006655        1.36841024
      108.12951       65.07742199        1.30177794
      108.22920       65.10612278        1.28118824
      108.32890       65.00007519        1.26793482
      108.42859       66.82164995        1.63170336
      108.52828       65.68053869        1.37216562
      108.62798       66.20947964        1.24924271
      108.72767       66.53234043        1.20199929
      108.82736       67.88751827        1.24099146
      108.92706       64.07314371        1.52670888
      109.02675       65.14671441        1.34680812
      109.12644       64.93187545        1.31232397
      109.22614       65.18941909        1.31597064
      109.32583       67.43795926        1.45863563
      109.42552       66.63010214        1.52930080
      109.52522       67.82414385        1.39209616
      109.62491       65.07151993        1.29684491
      109.72461       63.03696123        1.22023319
      109.82430       61.19098801        1.12297176
      109.92399       61.05675244        1.45846285
      110.02369       60.98975959        1.27648296
      110.12338       62.99127181        1.28889732
      110.22307       58.80354652        1.23581486
      110.32277       57.27758570        1.24541884
      110.42246       58.09910716        1.52515213
      110.52215       58.20183770        1.29289559
      110.62185       59.13519673        1.22827128
      110.72154       55.22716930        1.10725392
      110.82123       55.08740984        1.14207660
      110.92093       57.38480923        1.35963630
      111.02062       57.48570542        1.25721389
      111.12031       58.09081664        1.27327703
      111.22001       58.34667237        1.25218412
      111.31970       59.38984884        1.37111077
      111.41939       56.65015187        1.38553699
      111.51909       59.61564897        1.28982658
      111.61878       59.80169161        1.21694145
      111.71847       62.51518441        1.15773763
      111.81817       64.56121566        1.27703999
      111.91786       67.59658792        1.37530289
      112.01755       65.44030007        1.32121209
      112.11725       69.61954764        1.37327116
      112.21694       71.72991453        1.38777271
      112.31663       72.18886421        1.53416590
      112.41633       76.78840676        1.55467181
      112.51602       75.50436140        1.41957573
      112.61571       76.54174332        1.36348683
      112.71541       81.94540279        1.32976933
      112.81510       85.39858952        1.52231038
      112.91479       86.95814101        1.56488649
      113.01449       88.66512691        1.54747740
      113.11418       88.85097903        1.54393091
      113.21387       90.36204526        1.55000353
      113.31357       88.20551798        1.70060479
      113.41326       91.87595804        1.64966139
      113.51296       93.73542897        1.56748128
      113.61265       91.39229958        1.49331596
      113.71234       90.41484833        1.41867756
      113.81204       90.25073089        1.62380451
      113.91173       92.84841131        1.59612744
      114.01142       89.45688728        1.55073955
      114.11112       88.93651479        1.54537441
      114.21081       86.58632419        1.53572131
      114.31050       86.58605352        1.74156603
      114.41020       89.14081258        1.63301903
      114.50989       86.41040109        1.50503337
      114.60958       85.11405445        1.44541208
      114.70928       83.40250264        1.37989826
      114.80897       86.21470137        1.59138329
      114.90866       82.13417068        1.46483464
      115.00836       84.80122920        1.48160957
      115.10805       82.68536379        1.47086834
      115.20774       82.58873554        1.49224936
      115.30744       85.16540877        1.74005525
      115.40713       86.87051414        1.59186585
      115.50682       85.41306818        1.49010778
      115.60652       87.57320211        1.45428082
      115.70621       89.15080315        1.41027982
      115.80590       91.19095218        1.66404327
      115.90560       94.25988957        1.53356756
      116.00529       94.50416616        1.55269988
      116.10498       98.52274976        1.60215987
      116.20468       96.75960986        1.62411262
      116.30437      100.57855231        1.97414309
      116.40406      101.06857377        1.72360855
      116.50376      101.26852849        1.63042283
      116.60345      108.88669183        1.62331700
      116.70314      108.10498320        1.56836746
      116.80284      115.67861106        1.92820722
      116.90253      119.43573195        1.76269457
      117.00222      120.59791544        1.75731160
      117.10192      125.37836642        1.84011827
      117.20161      132.07646682        1.91207148
      117.30131      129.52505693        2.26561558
      117.40100      133.95817576        1.93732751
      117.50069      139.65972081        1.87912077
      117.60039      146.24331047        1.84064828
      117.70008      148.52760354        1.79719442
      117.79977      155.93594819        2.25711416
      117.89947      157.61863446        1.97285089
      117.99916      161.17191284        2.01900526
      118.09885      161.60772346        2.05967083
      118.19855      165.22525486        2.18156090
      118.29824      164.76259647        2.38817428
      118.39793      166.55474567        2.18017386
      118.49763      172.01224732        2.09111797
      118.59732      175.86197138        2.04167318
      118.69701      180.42221583        2.15463837
      118.79671      179.79573047        2.32241675
      118.89640      176.31185728        2.14397338
      118.99609      176.36325187        2.14199537
      119.09579      173.38062519        2.14833654
      119.19548      179.55450077        2.38934844
      119.29517      179.77632981        2.48390449
      119.39487      175.92713669        2.25848643
      119.49456      170.93259622        2.09752606
      119.59425      168.27034209        2.02091584
      119.69395      166.17467862        2.11861534
      119.79364      159.22959535        2.09539533
      119.89333      155.88705470        2.00633122
      119.99303      155.20011854        1.95452594
      120.09272      147.07414376        1.94548092
      120.19241      141.07106212        2.14121563
      120.29211      139.94426565        2.11081869
      120.39180      138.60348312        2.00404831
      120.49149      133.26162391        1.82725354
      120.59119      125.88689729        1.72333183
      120.69088      125.18231687        1.84993097
      120.79057      124.89278565        1.80810473
      120.89027      126.82008799        1.78890243
      120.98996      122.14151198        1.74181681
      121.08966      118.20657050        1.72611904
      121.18935      115.96705331        1.95959311
      121.28904      115.09718948        1.90268242
      121.38874      116.97718643        1.81401428
      121.48843      114.92577004        1.69813988
      121.58812      116.40335521        1.63006004
      121.68782      115.92493860        1.80208489
      121.78751      114.82167424        1.70895603
      121.88720      116.44473513        1.69908519
      121.98690      113.37253675        1.68890113
      122.08659      114.91178806        1.73447189
      122.18628      110.65429722        1.97416909
      122.28598      109.48926240        1.84661339
      122.38567      109.45684409        1.76830106
      122.48536      108.97065527        1.66894741
      122.58506      108.57221614        1.57775458
      122.68475      110.35693034        1.80262829
      122.78444      108.45239668        1.68255040
      122.88414      106.78016399        1.65525920
      122.98383      104.29297485        1.66924095
      123.08352       99.16256022        1.61345760
      123.18322      106.51997931        1.95086792
      123.28291      101.28634767        1.72861767
      123.38260       99.73518230        1.65582934
      123.48230      102.54205801        1.61836996
      123.58199       99.73757306        1.49167151
      123.68168       98.06169939        1.68769143
      123.78138       97.01471570        1.51443783
      123.88107       94.44673422        1.45957925
      123.98076       91.37458740        1.46204407
      124.08046       89.39046878        1.43074749
      124.18015       88.47837882        1.61107343
      124.27984       86.41253632        1.42636251
      124.37954       85.95440584        1.34236694
      124.47923       83.28849107        1.28988621
      124.57893       80.46476934        1.35061146
