        5.04651       57.05845414        2.57550703
        5.14621       62.20689245        2.59218559
        5.24590       56.82529891        2.44153179
        5.34559       58.97491725        2.28142077
        5.44529       50.08619856        2.28658508
        5.54498       51.01369689        1.94121567
        5.64467       50.48630775        1.91424063
        5.74437       50.44062642        1.72717666
        5.84406       52.27672372        1.77954176
        5.94375       51.67192196        1.76680880
        6.04345       54.18272237        1.75815700
        6.14314       54.08893941        1.60839101
        6.24283       52.71891907        1.64022875
        6.34253       51.29838884        1.54314168
        6.44222       50.44198262        1.61120350
        6.54191       51.53631517        1.54289553
        6.64161       49.61703663        1.43407227
        6.74130       51.74324269        1.47050213
        6.84099       53.20645356        1.48042901
        6.94069       50.33773710        1.46150133
        7.04038       52.09660622        1.37252320
        7.14007       50.77950879        1.35218996
        7.23977       52.16155796        1.34657220
        7.33946       49.24174476        1.32823182
        7.43915       52.81750469        1.35783352
        7.53885       50.61802063        1.30463396
        7.63854       48.85992656        1.22501779
        7.73823       51.38990396        1.30464195
        7.83793       51.14827043        1.25953484
        7.93762       49.79698794        1.29634269
        8.03732       51.41805762        1.18143343
        8.13701       49.18163619        1.15014832
        8.23670       50.01954790        1.17630615
        8.33640       49.74691727        1.17340695
        8.43609       48.78965914        1.21484715
        8.53578       50.49441357        1.15122747
        8.63548       49.45274895        1.12615504
        8.73517       47.80642445        1.08608444
        8.83486       51.40450647        1.12910014
        8.93456       51.77303965        1.12733511
        9.03425       50.60584293        1.08187313
        9.13394       51.41275437        1.09254835
        9.23364       49.66342907        1.08941193
        9.33333       49.58580853        1.11072044
        9.43302       50.45159461        1.12082634
        9.53272       49.70813716        1.07492153
        9.63241       50.49548021        1.11405463
        9.73210       50.44192824        1.11122976
        9.83180       52.40548947        1.18029675
        9.93149       51.94578514        1.16667817
       10.03118       50.80560326        1.11013449
       10.13088       50.41061577        1.07929821
       10.23057       50.90482005        1.13579155
       10.33026       53.44869950        1.20311796
       10.42996       51.20357346        1.16135188
       10.52965       51.44782043        1.12740374
       10.62934       52.53332205        1.14201601
       10.72904       52.57131638        1.15932624
       10.82873       52.90945251        1.15720162
       10.92842       52.26283465        1.16936001
       11.02812       53.26427905        1.12472481
       11.12781       53.78027247        1.17071959
       11.22750       52.48273750        1.16797931
       11.32720       54.82194532        1.22593389
       11.42689       53.03718780        1.16390468
       11.52658       55.62428073        1.17785557
       11.62628       57.00400146        1.20537033
       11.72597       58.25556939        1.24446708
       11.82567       59.93726753        1.29748059
       11.92536       61.20061060        1.22699138
       12.02505       62.19603887        1.24273221
       12.12475       69.02339344        1.30828834
       12.22444       75.12335168        1.44757302
       12.32413       81.34621430        1.52956130
       12.42383       86.49251495        1.49716534
       12.52352       98.98335778        1.59218827
       12.62321      114.72941077        1.76337096
       12.72291      130.48186054        1.83033701
       12.82260      149.59261293        2.13093240
       12.92229      166.64518705        2.04303742
       13.02199      195.78557718        2.19797061
       13.12168      221.65090921        2.37990592
       13.22137      257.55001227        2.65002290
       13.32107      286.48011368        2.88572167
       13.42076      314.93526200        2.91331512
       13.52045      335.97449653        3.04580492
       13.62015      349.22493660        3.01038387
       13.71984      339.06047139        3.09129413
       13.81953      316.54284920        3.03730365
       13.91923      279.10877437        2.67832440
       14.01892      220.43210063        2.31610654
       14.11861      172.44904748        2.13671180
       14.21831      135.92051716        1.89826189
       14.31800      111.92319321        1.81315613
       14.41769       83.91162498        1.51120835
       14.51739       73.44108039        1.37921994
       14.61708       63.45438033        1.28501965
       14.71677       55.77827263        1.22423281
       14.81647       53.93113758        1.26103146
       14.91616       51.93926436        1.13798878
       15.01585       51.06918414        1.14873151
       15.11555       50.67309748        1.15751565
       15.21524       51.27180173        1.20004993
       15.31493       50.57578363        1.22058882
       15.41463       48.57064903        1.15806127
       15.51432       47.95941466        1.11507167
       15.61402       49.37893122        1.16016247
       15.71371       48.14892033        1.13770326
       15.81340       47.06279860        1.17007471
       15.91310       47.49893953        1.14218400
       16.01279       46.51360608        1.08218955
       16.11248       47.72100295        1.12562888
       16.21218       47.43801364        1.15337590
       16.31187       49.98874191        1.18697997
       16.41156       50.29446416        1.16844698
       16.51126       49.46939354        1.17838288
       16.61095       52.25686868        1.16791826
       16.71064       50.54624657        1.18488748
       16.81034       49.50261547        1.17609673
       16.91003       52.94788747        1.18140028
       17.00972       56.99628020        1.17686489
       17.10942       58.66776984        1.26205143
       17.20911       63.72569116        1.32716536
       17.30880       65.93812726        1.36180991
       17.40850       66.96203644        1.37203877
       17.50819       70.22483606        1.36445929
       17.60788       75.66147567        1.46053196
       17.70758       75.28582725        1.46288406
       17.80727       74.95210267        1.47764216
       17.90696       71.34342029        1.34772833
       18.00666       68.30389725        1.34172728
       18.10635       64.04354741        1.26353572
       18.20604       58.99510063        1.33015417
       18.30574       57.24598860        1.24872340
       18.40543       54.82327821        1.19168204
       18.50512       53.74785022        1.21713102
       18.60482       55.77609543        1.22052501
       18.70451       52.53300907        1.25160040
       18.80420       52.02997965        1.17012663
       18.90390       50.39138514        1.13919492
       19.00359       48.91857130        1.09302671
       19.10328       49.96385845        1.16874239
       19.20298       49.46567268        1.19906531
       19.30267       47.12472396        1.12381684
       19.40237       46.36527758        1.10207885
       19.50206       47.45473254        1.14302746
       19.60175       45.82761779        1.11060168
       19.70145       46.87568186        1.17785391
       19.80114       46.08481475        1.10762896
       19.90083       44.73495604        1.05435729
       20.00053       45.62663575        1.08374115
       20.10022       46.71750072        1.10480714
       20.19991       48.06645816        1.19815029
       20.29961       48.73534445        1.14315244
       20.39930       52.68403279        1.22463710
       20.49899       49.58958115        1.16735914
       20.59869       51.84037330        1.21547651
       20.69838       52.10303319        1.26349890
       20.79807       53.24064254        1.21825909
       20.89777       57.23240769        1.23470198
       20.99746       54.75863038        1.21962525
       21.09715       56.11039186        1.30047592
       21.19685       59.96822583        1.33761386
       21.29654       60.70169061        1.31282403
       21.39623       59.36374418        1.29828208
       21.49593       56.91288744        1.25292232
       21.59562       53.79121143        1.24727076
       21.69531       51.67996508        1.27151778
       21.79501       50.62565633        1.15121662
       21.89470       47.71949131        1.09242388
       21.99439       48.11227300        1.14343292
       22.09409       46.25737997        1.12387937
       22.19378       45.85633145        1.18834746
       22.29347       44.72800431        1.09301611
       22.39317       46.16579699        1.13926941
       22.49286       46.94857358        1.14800078
       22.59255       46.43522880        1.15511081
       22.69225       48.18944339        1.24011337
       22.79194       48.26394351        1.11460079
       22.89163       48.15642855        1.09158606
       22.99133       52.55453791        1.17214875
       23.09102       55.69507363        1.25330963
       23.19072       58.71942878        1.29006128
       23.29041       55.93462889        1.24329992
       23.39010       59.12304022        1.29178056
       23.48980       58.64315293        1.29117636
       23.58949       55.23922905        1.26979569
       23.68918       50.68815954        1.27887866
       23.78888       52.00668183        1.15451819
       23.88857       47.45257911        1.11706297
       23.98826       46.89037195        1.13520730
       24.08796       49.03367655        1.13832980
       24.18765       46.80494547        1.19159250
       24.28734       45.09093661        1.11347869
       24.38704       45.23677497        1.13392390
       24.48673       44.42501191        1.11965325
       24.58642       44.90539965        1.16295731
       24.68612       45.13950620        1.16445385
       24.78581       44.36576266        1.06416025
       24.88550       46.37967224        1.08767873
       24.98520       44.47802499        1.10447288
       25.08489       45.89256313        1.14435639
       25.18458       46.34800811        1.17419720
       25.28428       48.12168187        1.15323914
       25.38397       48.83528373        1.15614418
       25.48366       50.20046745        1.17926183
       25.58336       56.26390714        1.30153334
       25.68305       60.79695891        1.32712608
       25.78274       68.54025332        1.33020806
       25.88244       81.34493085        1.48617946
       25.98213      102.43231398        1.68214974
       26.08182      134.61297463        1.98047240
       26.18152      156.23668532        2.18595982
       26.28121      176.57810787        2.19881143
       26.38090      199.27868110        2.35676957
       26.48060      197.48253459        2.41060177
       26.58029      183.54385348        2.42369797
       26.67998      166.68014887        2.18097150
       26.77968      138.24723956        1.96169995
       26.87937      108.02651119        1.70830596
       26.97907       86.37373635        1.51420582
       27.07876       79.81354756        1.56722779
       27.17845       75.95543961        1.46094796
       27.27815       78.26950763        1.44839271
       27.37784       81.86265512        1.53913619
       27.47753       84.73710328        1.54293013
       27.57723       84.90038994        1.61786418
       27.67692       84.86319026        1.57884074
       27.77661       81.11530030        1.47316703
       27.87631       68.41540115        1.32997064
       27.97600       62.54966577        1.30018020
       28.07569       56.38650283        1.30631997
       28.17539       52.34558344        1.20479865
       28.27508       50.72063285        1.18642235
       28.37477       51.03221750        1.21840162
       28.47447       49.04074850        1.18498031
       28.57416       51.60951867        1.31434964
       28.67385       53.21686933        1.18748698
       28.77355       52.22589325        1.15510381
       28.87324       57.89948459        1.24886425
       28.97293       54.11957595        1.21006356
       29.07263       59.44836895        1.38270232
       29.17232       57.25552927        1.23825039
       29.27201       57.82521702        1.26741691
       29.37171       53.59352241        1.25501149
       29.47140       51.68917854        1.21821442
       29.57109       51.47300438        1.28908831
       29.67079       48.35024206        1.13729508
       29.77048       47.80174342        1.13342791
       29.87017       46.87219191        1.10028848
       29.96987       47.29652514        1.15891125
       30.06956       47.18855014        1.19425838
       30.16925       48.06286301        1.13487189
       30.26895       48.72871528        1.14709814
       30.36864       49.52335223        1.17534393
       30.46833       49.80442028        1.19062799
       30.56803       51.03505190        1.27319253
       30.66772       55.29204263        1.23339878
       30.76742       59.42833500        1.25327187
       30.86711       64.58897060        1.33281832
       30.96680       63.85626652        1.33285374
       31.06650       62.64896068        1.38423442
       31.16619       61.62534371        1.29079451
       31.26588       57.82653333        1.24270750
       31.36558       56.38550193        1.24313839
       31.46527       57.92730700        1.31113870
       31.56496       60.28442776        1.35913701
       31.66466       65.38444151        1.32394576
       31.76435       74.00592406        1.40745304
       31.86404       80.81483494        1.45170484
       31.96374       85.93556896        1.53191065
       32.06343       88.53395121        1.60919474
       32.16312       88.11170227        1.50867614
       32.26282       80.60052586        1.47786710
       32.36251       75.37633436        1.48616355
       32.46220       70.87697878        1.46681941
       32.56190       65.98263348        1.44017839
       32.66159       62.01104170        1.32570254
       32.76128       59.00552333        1.26404034
       32.86098       58.76290920        1.28037561
       32.96067       59.69499543        1.30670275
       33.06036       57.57052283        1.30655866
       33.16006       56.74072677        1.22152665
       33.25975       54.21243651        1.23268183
       33.35944       55.74553549        1.25683225
       33.45914       58.11042766        1.33213462
       33.55883       58.02477314        1.33426231
       33.65852       62.74669476        1.29401983
       33.75822       66.68411291        1.33182297
       33.85791       74.34588057        1.41225918
       33.95760       79.75258204        1.50604122
       34.05730       86.72847662        1.55543647
       34.15699       99.82879469        1.64269824
       34.25668      119.89904193        1.79475762
       34.35638      142.86256825        2.01039250
       34.45607      177.31021894        2.35988099
       34.55577      221.51061237        2.51472684
       34.65546      289.44029596        2.75894912
       34.75515      375.11535163        3.20410913
       34.85485      438.23432100        3.43902141
       34.95454      462.00143523        3.64273535
       35.05423      439.15781547        3.67140473
       35.15393      388.76359615        3.24209599
       35.25362      311.35910541        2.94423478
       35.35331      235.98902045        2.62792801
       35.45301      173.10848520        2.34695224
       35.55270      129.23817021        1.97355250
       35.65239      103.15649817        1.70250033
       35.75209       83.77474482        1.52248860
       35.85178       78.33125929        1.47012265
       35.95147       71.87378514        1.44113623
       36.05117       68.29777402        1.37579367
       36.15086       67.01609928        1.31037808
       36.25055       60.74711279        1.30317073
       36.35025       58.46127596        1.30336586
       36.44994       57.76515098        1.32145934
       36.54963       54.31776030        1.22996628
       36.64933       53.86158585        1.20649732
       36.74902       53.21987239        1.21179451
       36.84871       52.04838546        1.18968904
       36.94841       52.19927042        1.28844801
       37.04810       52.97060543        1.14448071
       37.14779       49.70194842        1.13120982
       37.24749       50.21506241        1.16868441
       37.34718       47.60100932        1.16677723
       37.44687       47.67737865        1.25435805
       37.54657       48.97099402        1.16063108
       37.64626       48.71996661        1.15320352
       37.74595       49.69611716        1.14652784
       37.84565       49.32819598        1.20861538
       37.94534       47.32066335        1.20587236
       38.04503       48.32126393        1.10140023
       38.14473       46.97633637        1.09655465
       38.24442       49.31262704        1.14411899
       38.34412       50.50448450        1.21058027
       38.44381       50.38798396        1.30747470
       38.54350       48.44393883        1.14271537
       38.64320       50.95265466        1.16848139
       38.74289       51.31250338        1.18795157
       38.84258       54.34917539        1.22568522
       38.94228       55.58017433        1.30011524
       39.04197       59.65489935        1.21470402
       39.14166       62.94682980        1.29812788
       39.24136       67.48791845        1.34070414
       39.34105       72.18249137        1.43512089
       39.44074       69.18503330        1.53236462
       39.54044       73.92368987        1.41651968
       39.64013       69.21908629        1.36629951
       39.73982       67.66637569        1.35630176
       39.83952       63.77152269        1.30762860
       39.93921       59.52031520        1.33930469
       40.03890       58.25838856        1.21283750
       40.13860       56.44001300        1.19214355
       40.23829       56.77500180        1.23799188
       40.33798       56.76195260        1.27643624
       40.43768       56.11948797        1.32789038
       40.53737       55.12411234        1.22143166
       40.63706       58.17598169        1.28127093
       40.73676       55.71047281        1.25172654
       40.83645       61.56978818        1.32716430
       40.93614       63.00227811        1.36507205
       41.03584       66.53456855        1.32029270
       41.13553       77.19494680        1.42415598
       41.23522       90.25901893        1.57778880
       41.33492      109.94367905        1.82357689
       41.43461      131.23622715        2.05691643
       41.53430      159.13172073        2.12222829
       41.63400      179.04167818        2.30068992
       41.73369      197.41476930        2.36377235
       41.83338      202.48505949        2.45795358
       41.93308      210.85335561        2.48653577
       42.03277      210.63815831        2.27131460
       42.13247      231.17450569        2.50158737
       42.23216      269.40898344        2.70629778
       42.33185      345.56148659        3.29374268
       42.43155      419.87545174        3.58010048
       42.53124      499.74913284        3.78538230
       42.63093      566.37078443        4.04118755
       42.73063      593.22311416        4.15601231
       42.83032      567.56683477        4.13507541
       42.93001      523.51857533        3.82041380
       43.02971      426.89350165        3.25460109
       43.12940      324.45747015        2.89130678
       43.22909      230.16796230        2.55639706
       43.32879      176.85515077        2.35984355
       43.42848      133.46222535        2.00405801
       43.52817      100.18085752        1.66053239
       43.62787       78.11984056        1.46096402
       43.72756       70.01564153        1.41574815
       43.82725       67.58544991        1.45245670
       43.92695       61.34698863        1.25464474
       44.02664       57.11172677        1.20462892
       44.12633       58.44108716        1.26406436
       44.22603       58.51318712        1.31653609
       44.32572       54.56689561        1.33978495
       44.42541       56.64219319        1.30335560
       44.52511       53.89270046        1.23701359
       44.62480       57.25826023        1.29323145
       44.72449       60.53174643        1.28871509
       44.82419       61.11833144        1.45307231
       44.92388       64.71614511        1.24714087
       45.02357       72.23004389        1.32857119
       45.12327       83.86508771        1.47489729
       45.22296      100.19757853        1.65507552
       45.32265      120.57060121        2.00904858
       45.42235      136.41029600        1.94594780
       45.52204      172.56503803        2.16823870
       45.62174      204.21032930        2.40287589
       45.72143      240.91477300        2.61200169
       45.82112      266.93138385        3.01183516
       45.92082      274.92272199        2.59549538
       46.02051      269.42236385        2.62386752
       46.12020      250.79303984        2.53851875
       46.21990      223.21617547        2.51485933
       46.31959      190.75430757        2.50848041
       46.41928      154.11946920        2.08073476
       46.51898      124.75134374        1.88138272
       46.61867       99.83510966        1.67382016
       46.71836       80.30692302        1.53923618
       46.81806       70.29843720        1.49307716
       46.91775       62.40034382        1.22599196
       47.01744       60.95727008        1.24062991
       47.11714       63.31846132        1.29341396
       47.21683       62.42272800        1.32194591
       47.31652       70.66323805        1.53473255
       47.41622       80.16593556        1.54077183
       47.51591       94.65353612        1.67775670
       47.61560      113.81219839        1.82501415
       47.71530      132.72858658        1.99279411
       47.81499      150.64811953        2.17719896
       47.91468      172.00099217        2.03607991
       48.01438      190.14419757        2.14266160
       48.11407      198.12768998        2.26944105
       48.21376      196.90349131        2.36203677
       48.31346      182.10422288        2.35147390
       48.41315      163.93647760        2.07872842
       48.51284      142.52512819        2.00180957
       48.61254      112.30445392        1.76843470
       48.71223       93.14860582        1.63919447
       48.81192       79.18486676        1.50738547
       48.91162       66.83452077        1.24114047
       49.01131       58.28330963        1.19944338
       49.11100       55.53793123        1.21299194
       49.21070       51.09001142        1.22127393
       49.31039       51.94055751        1.26738217
       49.41009       48.76542740        1.15998262
       49.50978       49.10640724        1.18813244
       49.60947       48.64169636        1.19113388
       49.70917       49.83545845        1.25042016
       49.80886       48.64392699        1.20228158
       49.90855       48.53541799        1.09397494
       50.00825       51.04011586        1.14564388
       50.10794       51.50449102        1.17705437
       50.20763       49.91764657        1.21058932
       50.30733       52.12707036        1.29593829
       50.40702       53.81393489        1.23486788
       50.50671       55.23551706        1.25480892
       50.60641       54.27542614        1.24557549
       50.70610       59.12763233        1.33794328
       50.80579       55.09040520        1.27423477
       50.90549       55.18218863        1.14979085
       51.00518       57.05009026        1.17953161
       51.10487       56.22391843        1.21037611
       51.20457       53.21842149        1.25350783
       51.30426       55.14507579        1.26944499
       51.40395       57.29234180        1.24054230
       51.50365       57.90335505        1.26141073
       51.60334       59.03852305        1.29892211
       51.70303       60.38080964        1.39504095
       51.80273       60.73935006        1.28343927
       51.90242       61.14177094        1.20311269
       52.00211       60.82788706        1.20568203
       52.10181       63.47705062        1.27075780
       52.20150       65.17857338        1.41816832
       52.30119       62.61051139        1.33881577
       52.40089       61.82311493        1.30950249
       52.50058       60.76710793        1.32274779
       52.60027       58.74544633        1.31822824
       52.69997       58.12181264        1.43693982
       52.79966       60.05565738        1.22809699
       52.89935       63.03172704        1.21409963
       52.99905       67.66660380        1.27864970
       53.09874       79.87808967        1.43449756
       53.19844       94.06062623        1.78320168
       53.29813      108.21410684        1.70028820
       53.39782      124.04717843        1.88387814
       53.49752      138.29763680        1.99881032
       53.59721      148.27485554        2.06848576
       53.69690      161.78934508        2.37172532
       53.79660      163.76377047        1.99887247
       53.89629      159.33938634        1.95012174
       53.99598      151.14928693        1.94532954
       54.09568      135.46178245        1.92231893
       54.19537      120.93496608        1.98016944
       54.29506      109.62381987        1.73155260
       54.39476       97.82772945        1.64794124
       54.49445       92.79986964        1.60604195
       54.59414       87.52761698        1.58330358
       54.69384       84.60037272        1.66046511
       54.79353       82.99021223        1.41024041
       54.89322       81.64873128        1.39372147
       54.99292       78.95783254        1.41059628
       55.09261       75.75265285        1.43673472
       55.19230       70.21068565        1.48513626
       55.29200       66.35775429        1.34367463
       55.39169       62.14190044        1.34150858
       55.49138       59.05090702        1.30275028
       55.59108       57.79553546        1.33011667
       55.69077       56.61362602        1.35097593
       55.79046       54.47388857        1.15850959
       55.89016       54.94174115        1.16071335
       55.98985       54.40947121        1.16245963
       56.08954       57.46615265        1.23416430
       56.18924       64.57841491        1.41226671
       56.28893       72.18656887        1.36686285
       56.38862       76.99148391        1.46028203
       56.48832       89.85467637        1.60522994
       56.58801      100.91161581        1.75078559
       56.68770      110.61385906        1.89234149
       56.78740      110.56350525        1.61908554
       56.88709      115.36713343        1.67067738
       56.98679      110.83709348        1.63884990
       57.08648       99.58592093        1.64626680
       57.18617       89.88433091        1.61907355
       57.28587       78.84799275        1.41643307
       57.38556       71.18170769        1.43237541
       57.48525       63.29143174        1.37630825
       57.58495       58.48540278        1.35316360
       57.68464       55.99275111        1.33546914
       57.78433       56.41233720        1.17266407
       57.88403       51.04060147        1.12822610
       57.98372       51.25948733        1.14865558
       58.08341       51.88240332        1.24951424
       58.18311       54.92347108        1.31523843
       58.28280       53.92775783        1.22748489
       58.38249       53.15923646        1.27339976
       58.48219       48.97555795        1.24847304
       58.58188       52.03623928        1.30110727
       58.68157       53.60001143        1.29406145
       58.78127       55.66715173        1.15362333
       58.88096       52.76382757        1.10645201
       58.98065       54.39408654        1.16625810
       59.08035       56.73029220        1.27100367
       59.18004       59.04103624        1.31541324
       59.27973       59.81802669        1.24924032
       59.37943       62.82058501        1.32253488
       59.47912       68.72323564        1.44024617
       59.57881       71.60442867        1.54019968
       59.67851       77.35810136        1.49276269
       59.77820       80.95595936        1.40391287
       59.87789       91.36059971        1.48652639
       59.97759       98.20336670        1.61246230
       60.07728      104.95055760        1.80547613
       60.17697      109.73173710        1.75893305
       60.27667      107.68676162        1.69395221
       60.37636      107.25142343        1.72329050
       60.47605      108.24493529        1.80619597
       60.57575       96.81239424        1.87136015
       60.67544       92.55898390        1.57187526
       60.77514       86.23279078        1.44215864
       60.87483       74.60090531        1.31490396
       60.97452       71.06025840        1.35187176
       61.07422       68.87421189        1.49504666
       61.17391       66.23751692        1.26992058
       61.27360       65.54426370        1.30808429
       61.37330       65.89067070        1.36019395
       61.47299       66.53788449        1.42696118
       61.57268       72.34694185        1.69240721
       61.67238       68.25941525        1.33962421
       61.77207       68.02180627        1.30241177
       61.87176       70.22630167        1.30870547
       61.97146       71.15722179        1.36773680
       62.07115       66.61851795        1.49859806
       62.17084       68.37915353        1.33027679
       62.27054       63.08009024        1.33198296
       62.37023       67.21077023        1.42988338
       62.46992       61.16290944        1.41048454
       62.56962       63.83343841        1.61855235
       62.66931       64.39761129        1.30966746
       62.76900       66.97639521        1.30191356
       62.86870       72.31125368        1.32344964
       62.96839       79.26296015        1.43007911
       63.06808       87.84544851        1.67582396
       63.16778       95.57182115        1.55196161
       63.26747      110.14888739        1.72491703
       63.36716      118.18675186        1.85464812
       63.46686      129.04931727        1.99678044
       63.56655      140.40804147        2.21347680
       63.66624      153.14956125        1.96558564
       63.76594      171.05859689        2.01889886
       63.86563      181.17486016        2.07180308
       63.96532      183.74409048        2.18326341
       64.06502      190.00745476        2.37891124
       64.16471      178.62196339        2.13268934
       64.26440      161.12424944        2.10754813
       64.36410      138.36163506        1.99119174
       64.46379      124.13504744        1.99397094
       64.56349      111.85021785        1.92588892
       64.66318       91.96612813        1.52769029
       64.76287       75.32410883        1.36494445
       64.86257       67.86997602        1.29348317
       64.96226       60.10015538        1.27470239
       65.06195       55.67259884        1.32644550
       65.16165       55.15706626        1.19100366
       65.26134       52.96476150        1.19433007
       65.36103       54.66395188        1.26616788
       65.46073       52.50431053        1.28157751
       65.56042       53.05585445        1.34556744
       65.66011       55.33386868        1.19829749
       65.75981       57.78751278        1.21243053
       65.85950       58.60113195        1.21317356
       65.95919       61.27853591        1.29873569
       66.05889       65.65334005        1.39066568
       66.15858       70.08385353        1.36647264
       66.25827       79.09567274        1.50166686
       66.35797       90.17499013        1.67077430
       66.45766      102.61420551        1.89429070
       66.55735      117.18426431        2.02446399
       66.65705      129.83494916        1.89068954
       66.75674      146.31402838        1.95655266
       66.85643      158.86166390        2.01604432
       66.95613      167.67418729        2.15391199
       67.05582      172.19917040        2.19936542
       67.15551      167.03890097        2.06097846
       67.25521      158.23385562        2.10499226
       67.35490      146.40268845        2.13103182
       67.45459      130.33136051        2.11979955
       67.55429      116.75579698        1.92187592
       67.65398       95.48524018        1.55713315
       67.75367       83.54103488        1.44425833
       67.85337       77.38974088        1.40703183
       67.95306       74.28754364        1.47399019
       68.05275       76.15138582        1.41320135
       68.15245       83.37592752        1.46629275
       68.25214       90.47576679        1.62148190
       68.35184       98.64509955        1.76485189
       68.45153      104.49474913        1.99985524
       68.55122      113.01591927        1.79203753
       68.65092      122.30680917        1.73799855
       68.75061      127.70355203        1.79443923
       68.85030      129.24184323        1.84000359
       68.95000      125.42536152        2.05483317
       69.04969      120.09420477        1.69782763
       69.14938      109.00789502        1.66286072
       69.24908       99.40918888        1.69550860
       69.34877       86.25394249        1.63293211
       69.44846       75.15144863        1.76748120
       69.54816       70.53226779        1.33496243
       69.64785       61.22840195        1.22600643
       69.74754       55.89814477        1.18305468
       69.84724       54.71400025        1.20096634
       69.94693       52.26468601        1.32458485
       70.04662       48.40811997        1.04816981
       70.14632       49.19429973        1.09880062
       70.24601       45.74751085        1.13441918
       70.34570       50.07409618        1.25610837
       70.44540       47.60833755        1.44296810
       70.54509       51.06563119        1.16989446
       70.64478       50.44201092        1.16104993
       70.74448       50.09804872        1.17541033
       70.84417       50.95930724        1.23018095
       70.94386       50.30252641        1.34163231
       71.04356       50.52999328        1.11271334
       71.14325       51.91923231        1.17215101
       71.24294       53.02708504        1.24642900
       71.34264       53.38605487        1.32612600
       71.44233       52.78128612        1.47137642
       71.54202       54.26934276        1.21471668
       71.64172       54.84230042        1.18785710
       71.74141       52.51816601        1.14122772
       71.84110       53.74413285        1.19511091
       71.94080       50.70392929        1.26479200
       72.04049       52.81120526        1.09262183
       72.14019       52.88263558        1.13917999
       72.23988       50.73404056        1.16738336
       72.33957       51.90423727        1.31898151
       72.43927       55.85344891        1.50636793
       72.53896       53.31910710        1.17995675
       72.63865       53.15911844        1.15161602
       72.73835       52.62093521        1.12055121
       72.83804       58.44429501        1.24727255
       72.93773       58.64065640        1.32711029
       73.03743       60.82233704        1.17326813
       73.13712       65.01637874        1.27943681
       73.23681       63.89400759        1.33245859
       73.33651       65.79452148        1.48791935
       73.43620       63.27422103        1.58031895
       73.53589       67.38865847        1.31581247
       73.63559       66.91038121        1.29052429
       73.73528       68.28293215        1.29783280
       73.83497       64.19361202        1.33388806
       73.93467       63.02849318        1.39172581
       74.03436       63.33156031        1.23464392
       74.13405       60.52512814        1.25816935
       74.23375       63.56109363        1.34317470
       74.33344       58.74396499        1.42127443
       74.43313       57.60809119        1.46041522
       74.53283       60.36121164        1.27025271
       74.63252       61.14434058        1.26923442
       74.73221       63.51078093        1.28733812
       74.83191       68.17249465        1.41505017
       74.93160       71.17413047        1.46228978
       75.03129       72.21350883        1.30948874
       75.13099       80.25051989        1.43020446
       75.23068       87.63064324        1.55921709
       75.33037       96.16350048        1.79584129
       75.43007      104.91942379        1.90334884
       75.52976      112.90106261        1.71528724
       75.62945      130.96663572        1.84680599
       75.72915      141.14948450        1.91017103
       75.82884      147.23876251        2.10081048
       75.92854      150.95592633        1.99702506
       76.02823      157.87147643        1.91572266
       76.12792      160.08151661        2.01637091
       76.22762      163.67046649        2.15133605
       76.32731      158.21540138        2.38838932
       76.42700      148.60769092        2.18396353
       76.52670      142.34020783        1.97145949
       76.62639      130.03952111        1.85979924
       76.72608      120.01620409        1.75651668
       76.82578      110.62790243        1.94264266
       76.92547      110.26722320        1.55348757
       77.02516      109.23425937        1.60250954
       77.12486      114.04389916        1.72034639
       77.22455      115.81246689        1.84600717
       77.32424      128.86275421        2.39327239
       77.42394      134.67755622        1.95395310
       77.52363      140.71872467        1.93041503
       77.62332      149.10068878        1.97850745
       77.72302      155.62372483        2.02629106
       77.82271      159.65481651        2.40720021
       77.92240      163.19773567        1.86384270
       78.02210      161.39780016        1.99991156
       78.12179      157.49422316        2.10975983
       78.22148      149.81770877        2.17541966
       78.32118      143.82124459        2.47278278
       78.42087      129.19550762        1.84365072
       78.52056      116.77792087        1.80938884
       78.62026      106.62594903        1.71486922
       78.71995       93.49152026        1.61051245
       78.81964       87.22284759        1.73726974
       78.91934       79.59546744        1.28566364
       79.01903       71.19630897        1.33277288
       79.11872       67.10584362        1.34645601
       79.21842       64.89914678        1.41247007
       79.31811       62.29681752        1.55868281
       79.41780       58.61730366        1.22634740
       79.51750       59.42553089        1.25470043
       79.61719       62.39984903        1.28963532
       79.71689       59.58233892        1.30823920
       79.81658       58.18281102        1.37034175
       79.91627       63.56261209        1.21431614
       80.01597       59.55306610        1.20796194
       80.11566       64.50564782        1.31444654
       80.21535       65.06473840        1.41118478
       80.31505       67.29764423        1.70623614
       80.41474       65.35911195        1.29198882
       80.51443       66.96144547        1.30207439
       80.61413       70.19883855        1.37754012
       80.71382       73.48193593        1.45810612
       80.81351       78.92424600        1.69831955
       80.91321       83.53627899        1.28859247
       81.01290       95.22983524        1.48566119
       81.11259      109.99755660        1.72395353
       81.21229      125.19822810        1.98997548
       81.31198      134.28304203        2.29916827
       81.41167      155.21602469        1.93624979
       81.51137      183.64709650        2.16807120
       81.61106      200.60447838        2.36676615
       81.71075      219.46473576        2.56316666
       81.81045      226.73050970        2.76019995
       81.91014      259.05720886        2.27055444
       82.00983      283.08780214        2.53840754
       82.10953      299.22144352        2.92058621
       82.20922      311.69298664        3.31613590
       82.30891      330.65827758        3.58350825
       82.40861      330.76498267        2.91450240
       82.50830      321.11399101        2.86328906
       82.60799      324.29811517        3.09997023
       82.70769      313.78418490        3.31726711
       82.80738      316.85316394        3.18535035
       82.90707      305.57278724        2.53930500
       83.00677      287.99608568        2.62544642
       83.10646      269.72293808        2.98823830
       83.20615      258.63344984        3.25643879
       83.30585      239.64693844        2.96823452
       83.40554      214.62457699        2.33403383
       83.50524      188.37537343        2.13240295
       83.60493      166.54521089        2.20788674
       83.70462      144.22071687        2.31558699
       83.80432      133.06851426        1.94353161
       83.90401      109.11267669        1.47552864
       84.00370       93.47582902        1.42405063
       84.10340       78.31432645        1.55705944
       84.20309       75.55167403        1.85668966
       84.30278       72.59288417        1.48009648
       84.40248       69.77108562        1.28059072
       84.50217       64.52916698        1.20800807
       84.60186       60.87846490        1.32659517
       84.70156       67.01124350        1.82170294
       84.80125       62.57127810        1.22537352
       84.90094       62.42734539        1.09950275
       85.00064       63.91887837        1.14632914
       85.10033       65.29861273        1.37128273
       85.20002       63.75850870        2.32386169
       85.29972       64.50492847        1.23303857
       85.39941       67.92024329        1.29014632
       85.49910       65.98634300        1.23655888
       85.59880       66.43808928        1.39523976
       85.69849       69.28562431        2.55831298
       85.79818       65.20601914        1.16993704
       85.89788       65.44811927        1.14411139
       85.99757       67.05620184        1.18999920
       86.09726       67.93827608        1.37529450
       86.19696       64.99563159        2.58335564
       86.29665       62.90443511        1.20260038
       86.39634       64.13325186        1.23541720
       86.49604       63.35792332        1.20932362
       86.59573       59.46019073        1.24808323
       86.69542       56.41570522        2.54153316
       86.79512       58.27098179        1.07229099
       86.89481       58.06216085        1.05527687
       86.99451       54.21088437        1.05679679
       87.09420       56.48288307        1.20315661
       87.19389       50.82763738        2.70303608
       87.29359       52.27919430        1.11105694
       87.39328       52.46423752        1.12806648
       87.49297       50.02587448        1.06925251
       87.59267       50.37096086        1.09404582
       87.69236       51.76376915        3.31882077
       87.79205       50.13021141        1.01735068
       87.89175       49.95326284        1.00737122
       87.99144       51.48787845        1.06575432
       88.09113       51.59118411        1.13390881
       88.19083       36.31388822        5.03141990
       88.29052       49.39204004        1.11638320
       88.39021       47.83181413        1.10587123
       88.48991       50.02020317        1.08541443
       88.58960       50.54585607        1.05665824
       88.68929       49.91692498        8.13431476
       88.78899       50.55447896        1.02001047
       88.88868       50.89644723        1.00111394
       88.98837       49.62378958        1.02810441
       89.08807       48.27731067        1.03862660
       89.18776       46.47492089        8.29106478
       89.28745       47.74891524        1.04944534
       89.38715       52.96442540        1.11683265
       89.48684       53.54274779        1.09890882
       89.58653       55.84787704        1.09960145
       89.68623       48.51589799        8.30636968
       89.78592       59.75381329        1.10534079
       89.88561       62.60855961        1.10933382
       89.98531       64.78719291        1.15720872
       90.08500       71.55995814        1.26164876
       90.18469       73.85092059       10.69024625
       90.28439       78.00728774        1.34560614
       90.38408       84.81531057        1.42695833
       90.48377       89.31348360        1.43700467
       90.58347       95.01742187        1.45913810
       90.68316       82.87308565       10.61022733
       90.78286       93.15518513        1.38287097
       90.88255       99.47406505        1.39077071
       90.98224      102.16732967        1.45841718
       91.08194      103.12775233        1.51337892
       91.18163       98.12561830       11.77772920
       91.28132      101.73128405        1.54750861
       91.38102       97.51396909        1.55507094
       91.48071       96.04233857        1.50534589
       91.58040       87.99180545        1.39311629
       91.68010       90.21089978       10.67229319
       91.77979       81.66386826        1.28807449
       91.87948       78.95250898        1.24683840
       91.97918       72.88566739        1.24372450
       92.07887       71.53310839        1.28343062
       92.17856       55.27941177        8.57352415
       92.27826       69.50822731        1.30653540
       92.37795       69.25695283        1.33509806
       92.47764       69.00467446        1.26508756
       92.57734       72.91576301        1.26173913
       92.67703       91.94782969        9.20341432
       92.77672       79.40318930        1.26929461
       92.87642       85.39446361        1.29144528
       92.97611       88.47544400        1.37278553
       93.07580       92.63093022        1.60338948
       93.17550       99.27756432        3.12202890
       93.27519       99.02331478        1.52836584
       93.37488       98.05111880        1.47831797
       93.47458      100.99868813        1.51702674
       93.57427      105.96395463        1.79677948
       93.67396      104.24432994        2.40826562
       93.77366      103.56459027        1.48697058
       93.87335      100.20916023        1.39698445
       93.97304      100.61664618        1.45881596
       94.07274       96.33781252        1.85298997
       94.17243       91.86187038        2.06427361
       94.27212       93.01394113        1.54717798
       94.37182       89.08190216        1.47545806
       94.47151       85.15603478        1.38133518
       94.57121       81.08790595        1.77870424
       94.67090       77.93674976        1.76380074
       94.77059       77.85194360        1.37037906
       94.87029       70.36307384        1.18437786
       94.96998       66.14172926        1.16267992
       95.06967       65.68972226        1.33571525
       95.16937       62.03019642        1.77657700
       95.26906       60.17689007        1.35170646
       95.36875       60.84940779        1.23340135
       95.46845       59.84775250        1.17551631
       95.56814       60.47880973        1.35980272
       95.66783       57.14383526        1.48478491
       95.76753       57.20673720        1.22765248
       95.86722       53.87060026        1.01323794
       95.96691       56.07430893        1.07234779
       96.06661       54.73754522        1.35716325
       96.16630       51.81547640        1.40797130
       96.26599       49.70450519        1.23833297
       96.36569       50.97505150        1.12529269
       96.46538       49.40543895        1.06909701
       96.56507       47.89842180        1.29919491
       96.66477       49.74459412        1.29022331
       96.76446       48.87627777        1.14282521
       96.86415       48.64669052        0.98757288
       96.96385       47.13867725        1.00402084
       97.06354       50.08236938        1.39953575
       97.16323       50.03641390        1.33756131
       97.26293       49.92439396        1.25522601
       97.36262       50.96146586        1.17443307
       97.46231       51.27988650        1.08384016
       97.56201       48.61700130        1.34250221
       97.66170       52.66706370        1.25521827
       97.76139       52.52598902        1.13881691
       97.86109       54.70489080        1.05099646
       97.96078       54.45983391        1.07153726
       98.06047       55.37180103        1.50080323
       98.16017       54.13728368        1.31914465
       98.25986       54.57179240        1.26508347
       98.35956       54.53768442        1.19397768
       98.45925       60.84953268        1.17744070
       98.55894       62.66851558        1.55880765
       98.65864       63.14720548        1.34259719
       98.75833       67.41836615        1.29640158
       98.85802       67.59728127        1.21208359
       98.95772       69.07567615        1.21715092
       99.05741       72.96571838        1.73686786
       99.15710       74.11615510        1.50549125
       99.25680       77.72741889        1.49383274
       99.35649       79.27720539        1.43695234
       99.45618       82.95695970        1.37001136
       99.55588       80.63715963        1.80466202
       99.65557       87.51602103        1.55140293
       99.75526       86.05994917        1.44185846
       99.85496       86.91375665        1.37916051
       99.95465       86.29197976        1.34722657
      100.05434       86.84221203        1.92537731
      100.15404       84.64877640        1.60099758
      100.25373       90.17484197        1.63295751
      100.35342       85.82925734        1.58665605
      100.45312       85.02029413        1.44094565
      100.55281       84.03492009        1.88148685
      100.65250       79.75886151        1.49304252
      100.75220       79.62306828        1.38179491
      100.85189       76.10437400        1.29064554
      100.95158       74.36881520        1.24168031
      101.05128       77.37013578        1.80582299
      101.15097       72.19555566        1.44143772
      101.25066       73.30818494        1.43514545
      101.35036       73.77986810        1.45226031
      101.45005       75.61477801        1.38261992
      101.54974       70.71593842        1.66509391
      101.64944       75.26308545        1.40173017
      101.74913       77.70862174        1.34213392
      101.84882       79.09492629        1.31812625
      101.94852       79.30511856        1.39032333
      102.04821       84.00455709        1.72378872
      102.14791       86.19816918        1.57380355
      102.24760       87.73501163        1.57444785
      102.34729       86.16941432        1.55388355
      102.44699       86.05992275        1.57988904
      102.54668       84.33838724        1.64104478
      102.64637       90.78260647        1.52096263
      102.74607       89.68517885        1.43967882
      102.84576       90.62672374        1.41978256
      102.94545       88.93206334        1.60177581
      103.04515       93.82421446        1.74199646
      103.14484       90.19075420        1.59552727
      103.24453       90.24665626        1.57140146
      103.34423       86.59176169        1.52659638
      103.44392       85.87677023        1.64677109
      103.54361       85.97254381        1.60064841
      103.64331       86.22796170        1.45919207
      103.74300       85.42092277        1.38530472
      103.84269       85.20517264        1.35959375
      103.94239       83.18385582        1.61423967
      104.04208       83.53882892        1.56502354
      104.14177       82.35978749        1.51178231
      104.24147       81.32033018        1.50139305
      104.34116       85.09663475        1.54559832
      104.44085       79.51914181        1.69658892
      104.54055       75.46039704        1.49614715
      104.64024       77.74081797        1.42757671
      104.73993       76.45519580        1.35091255
      104.83963       74.47173239        1.28443529
      104.93932       70.33561571        1.51303606
      105.03901       73.03589307        1.45290160
      105.13871       70.48494067        1.37419634
      105.23840       66.49347606        1.33376606
      105.33809       68.00541096        1.35687909
      105.43779       66.95725029        1.56651203
      105.53748       63.09335997        1.36351084
      105.63717       62.56762412        1.24457659
      105.73687       59.25287281        1.15250729
      105.83656       57.65800240        1.10774994
      105.93626       57.36525578        1.40021246
      106.03595       56.55588912        1.26003021
      106.13564       54.24607310        1.19261484
      106.23534       51.91704789        1.18100227
      106.33503       52.00639002        1.19396295
      106.43472       52.19656517        1.41412484
      106.53442       50.22333682        1.20645508
      106.63411       52.87563867        1.12461649
      106.73380       50.72145459        1.04972458
      106.83350       53.65480964        1.06364322
      106.93319       53.34634310        1.37483540
      107.03288       52.55113043        1.20934660
      107.13258       51.88235569        1.16631791
      107.23227       53.74193250        1.20434206
      107.33196       52.84490755        1.19093316
      107.43166       53.66567034        1.44206896
      107.53135       58.52001965        1.29949246
      107.63104       56.28192430        1.16032879
      107.73074       58.51153588        1.13515739
      107.83043       61.03017453        1.14477841
      107.93012       63.95858458        1.55045707
      108.02982       61.12764646        1.32654686
      108.12951       63.60305429        1.28689288
      108.22920       65.57955110        1.28587190
      108.32890       68.24370815        1.29934690
      108.42859       66.79833954        1.63143323
      108.52828       69.24023518        1.40904897
      108.62798       72.17794354        1.30462121
      108.72767       68.46823096        1.21945612
      108.82736       71.51658235        1.27390456
      108.92706       68.00037966        1.57303413
      109.02675       70.70188725        1.40334390
      109.12644       67.90085375        1.34214462
      109.22614       70.14835635        1.36535763
      109.32583       69.07504279        1.47633336
      109.42552       67.91841280        1.54409975
      109.52522       68.91358247        1.40329947
      109.62491       66.84802315        1.31452313
      109.72461       65.44337887        1.24342350
      109.82430       61.64146993        1.12712661
      109.92399       60.37422644        1.45026742
      110.02369       61.69334312        1.28386894
      110.12338       59.55219295        1.25307953
      110.22307       58.48433282        1.23245412
      110.32277       57.00722007        1.24247624
      110.42246       58.11240633        1.52534221
      110.52215       57.02863473        1.27975803
      110.62185       54.75837061        1.18177226
      110.72154       54.83239560        1.10328478
      110.82123       55.26821176        1.14396767
      110.92093       52.91205092        1.30538123
      111.02062       55.90976505        1.23980442
      111.12031       55.63112925        1.24593301
      111.22001       56.81781131        1.23561515
      111.31970       57.30497660        1.34674363
      111.41939       58.21628177        1.40464959
      111.51909       59.01663439        1.28331556
      111.61878       58.81624570        1.20684292
      111.71847       60.35334707        1.13746810
      111.81817       64.28690617        1.27432421
      111.91786       65.42768886        1.35296891
      112.01755       68.82573568        1.35513107
      112.11725       67.75603731        1.35469158
      112.21694       73.28561193        1.40283158
      112.31663       74.29673702        1.55653367
      112.41633       74.11122224        1.52720098
      112.51602       75.87157057        1.42305574
      112.61571       80.93173411        1.40227267
      112.71541       82.02018225        1.33039234
      112.81510       86.54709888        1.53258956
      112.91479       87.35981038        1.56853388
      113.01449       85.42348648        1.51876740
      113.11418       89.57543189        1.55026691
      113.21387       89.48582474        1.54243766
      113.31357       90.70114462        1.72466285
      113.41326       93.19150179        1.66152282
      113.51296       94.64338676        1.57512011
      113.61265       93.53236771        1.51082700
      113.71234       94.40228000        1.44984016
      113.81204       92.01208655        1.63969062
      113.91173       93.60720725        1.60269454
      114.01142       91.22386100        1.56609238
      114.11112       87.21933110        1.53030514
      114.21081       87.29147841        1.54201522
      114.31050       83.73144016        1.71246175
      114.41020       85.69085859        1.60092779
      114.50989       84.34384805        1.48683400
      114.60958       81.85227010        1.41729681
      114.70928       80.02358798        1.35150964
      114.80897       77.06403912        1.50409225
      114.90866       77.32473657        1.42107383
      115.00836       77.90441397        1.41975241
      115.10805       78.58435124        1.43373568
      115.20774       75.37975722        1.42528743
      115.30744       76.41141408        1.64771104
      115.40713       77.30259285        1.50115451
      115.50682       78.91963942        1.43203329
      115.60652       79.54346670        1.38562757
      115.70621       80.15205010        1.33680108
      115.80590       83.10310324        1.58810093
      115.90560       86.44437204        1.46822541
      116.00529       84.61354114        1.46870719
      116.10498       88.89734486        1.52138565
      116.20468       92.93081848        1.59145644
      116.30437       95.23875406        1.92068233
      116.40406       94.99802558        1.67070382
      116.50376       96.95349038        1.59508236
      116.60345      102.51864153        1.57479661
      116.70314      110.47333803        1.58560136
      116.80284      116.24282408        1.93296080
      116.90253      119.95480284        1.76657003
      117.00222      129.01273649        1.81814072
      117.10192      136.46367904        1.92050695
      117.20161      138.17505164        1.95615475
      117.30131      138.97187226        2.34758174
      117.40100      148.87083146        2.04340397
      117.50069      151.32827671        1.95686450
      117.60039      160.38521612        1.92856402
      117.70008      166.34912533        1.90316595
      117.79977      169.38775570        2.35358493
      117.89947      171.25236237        2.05740584
      117.99916      171.14597164        2.08128583
      118.09885      173.27858060        2.13363714
      118.19855      175.66189688        2.25024860
      118.29824      178.88720925        2.48968780
      118.39793      186.76257353        2.31029961
      118.49763      187.72296545        2.18574770
      118.59732      185.64745301        2.09844384
      118.69701      187.62879495        2.19782236
      118.79671      182.55822682        2.34043860
      118.89640      184.06619776        2.19122737
      118.99609      178.43267743        2.15470219
      119.09579      177.31914807        2.17292028
      119.19548      177.48419058        2.37538472
      119.29517      173.04948054        2.43644112
      119.39487      169.23991455        2.21465037
      119.49456      169.91694446        2.09123114
      119.59425      164.37269148        1.99712058
      119.69395      158.52383761        2.06873557
      119.79364      148.63633137        2.02376366
      119.89333      143.89817190        1.92684692
      119.99303      142.87862211        1.87454532
      120.09272      140.40841937        1.90045777
      120.19241      132.54745728        2.07492146
      120.29211      132.60081331        2.05418213
      120.39180      132.10507823        1.95607813
      120.49149      126.09961710        1.77704462
      120.59119      121.29981682        1.69138732
      120.69088      119.14316897        1.80439177
      120.79057      114.24171891        1.72865864
      120.89027      113.67871547        1.69291929
      120.98996      118.63720506        1.71645378
      121.08966      118.51226180        1.72838479
      121.18935      117.95159695        1.97644595
      121.28904      116.88839034        1.91756957
      121.38874      118.59247934        1.82661702
      121.48843      114.38256338        1.69410604
      121.58812      117.27946103        1.63624896
      121.68782      115.57530057        1.79936058
      121.78751      120.02444574        1.74758081
      121.88720      121.21225730        1.73382523
      121.98690      120.40326369        1.74092771
      122.08659      114.75526983        1.73329751
      122.18628      115.46397860        2.01697707
      122.28598      115.05811084        1.89338053
      122.38567      111.68207678        1.78634199
      122.48536      111.26365331        1.68656733
      122.58506      113.77168356        1.61540208
      122.68475      110.79282671        1.80622998
      122.78444      113.38096563        1.72067125
      122.88414      108.53495328        1.66892372
      122.98383      103.32207886        1.66141249
      123.08352      104.77975486        1.65886962
      123.18322      101.74514595        1.90634097
      123.28291      101.04086614        1.72652347
      123.38260       97.50521378        1.63710107
      123.48230      102.70490864        1.61967950
      123.58199       96.64090527        1.46818662
      123.68168       96.04676043        1.67016034
      123.78138       92.74883444        1.48055993
      123.88107       92.67717145        1.44576532
      123.98076       90.04442560        1.45130962
      124.08046       88.22990042        1.42138516
      124.18015       87.42999232        1.60145664
      124.27984       85.45690198        1.41841963
      124.37954       83.78426941        1.32522463
      124.47923       82.68847811        1.28521697
      124.57893       76.91128701        1.32029968
