        5.04651       53.59290024        2.49734971
        5.14621       53.12334383        2.39621955
        5.24590       57.74671555        2.46289102
        5.34559       55.66938786        2.21771305
        5.44529       51.22009919        2.31388599
        5.54498       52.99080906        1.97987126
        5.64467       49.76878000        1.90174959
        5.74437       46.97989672        1.66772994
        5.84406       48.98599942        1.72351763
        5.94375       48.89620609        1.71962382
        6.04345       50.03664037        1.69037846
        6.14314       48.63044404        1.52575251
        6.24283       47.86947708        1.56369633
        6.34253       48.52028731        1.50158255
        6.44222       50.03838633        1.60574241
        6.54191       47.01968943        1.47443871
        6.64161       48.10048848        1.41280844
        6.74130       51.28007697        1.46481286
        6.84099       49.86562163        1.43394009
        6.94069       47.34016228        1.41806943
        7.04038       47.47750178        1.31088424
        7.14007       47.59316514        1.30976419
        7.23977       46.84358880        1.27665689
        7.33946       51.40999204        1.35812636
        7.43915       48.40071769        1.30044504
        7.53885       48.92868570        1.28341800
        7.63854       46.55394511        1.19642393
        7.73823       48.31852474        1.26572214
        7.83793       49.08871759        1.23461097
        7.93762       48.38169491        1.27853694
        8.03732       49.60796674        1.16111578
        8.13701       48.25679033        1.13997032
        8.23670       47.19762597        1.14325605
        8.33640       48.86227341        1.16363017
        8.43609       46.76001254        1.18998130
        8.53578       47.67818498        1.11926354
        8.63548       44.77076781        1.07202460
        8.73517       48.91243413        1.09931749
        8.83486       46.07629691        1.06946173
        8.93456       46.89304872        1.07338837
        9.03425       47.17997790        1.04514987
        9.13394       47.81242446        1.05413597
        9.23364       45.62199708        1.04466062
        9.33333       47.99581012        1.09340112
        9.43302       46.20758138        1.07317042
        9.53272       46.65537580        1.04194137
        9.63241       48.47661961        1.09217345
        9.73210       48.28406318        1.08780993
        9.83180       45.77462601        1.10354460
        9.93149       48.20797135        1.12448652
       10.03118       47.69430560        1.07617169
       10.13088       46.43983965        1.03643288
       10.23057       46.16760434        1.08216004
       10.33026       46.54601060        1.12318520
       10.42996       45.34927792        1.09341604
       10.52965       48.38609887        1.09391994
       10.62934       49.39249655        1.10793244
       10.72904       48.92908814        1.11901308
       10.82873       48.33203565        1.10653715
       10.92842       49.16730540        1.13479832
       11.02812       49.50011044        1.08480036
       11.12781       49.13858068        1.11958676
       11.22750       51.37515430        1.15627887
       11.32720       52.30101402        1.19807043
       11.42689       49.93770618        1.12997834
       11.52658       52.64200739        1.14645354
       11.62628       54.89943709        1.18357441
       11.72597       57.17853302        1.23364630
       11.82567       57.88446930        1.27578638
       11.92536       61.69240068        1.23271548
       12.02505       67.28511821        1.29362759
       12.12475       72.77197014        1.34437467
       12.22444       80.70054445        1.50159192
       12.32413       94.02507780        1.64622369
       12.42383      100.31943962        1.61420673
       12.52352      117.02267523        1.73339731
       12.62321      135.40944338        1.91831571
       12.72291      161.90872959        2.04240958
       12.82260      184.20445932        2.36899212
       12.92229      207.32184630        2.28345354
       13.02199      232.03664459        2.39734724
       13.12168      261.88339566        2.59214108
       13.22137      292.08556875        2.82725975
       13.32107      315.15430341        3.03159454
       13.42076      338.70347790        3.02561782
       13.52045      356.31501104        3.14080673
       13.62015      361.62084161        3.06656288
       13.71984      347.88776331        3.13418128
       13.81953      321.46066140        3.06323739
       13.91923      278.10318302        2.67507514
       14.01892      225.61691697        2.34508215
       14.11861      169.86913557        2.12181448
       14.21831      134.90390101        1.89227762
       14.31800      107.44476832        1.77735634
       14.41769       85.14580550        1.52331303
       14.51739       71.66527837        1.36322306
       14.61708       60.50514723        1.25546875
       14.71677       57.94639181        1.24868756
       14.81647       52.34806298        1.24310627
       14.91616       50.96002977        1.12788807
       15.01585       49.76377353        1.13462366
       15.11555       47.14232483        1.11703232
       15.21524       49.94314463        1.18509652
       15.31493       47.20654178        1.17984169
       15.41463       46.76012656        1.13692249
       15.51432       47.71837702        1.11296401
       15.61402       49.75368792        1.16531258
       15.71371       48.10369536        1.13789025
       15.81340       48.79097285        1.19219425
       15.91310       47.68505226        1.14515488
       16.01279       47.42641127        1.09348687
       16.11248       46.80425505        1.11543747
       16.21218       49.31162942        1.17675779
       16.31187       47.42667271        1.15679269
       16.41156       48.33960958        1.14616379
       16.51126       47.74680708        1.15835069
       16.61095       49.03182439        1.13189601
       16.71064       51.21441786        1.19347978
       16.81034       51.50210836        1.20046123
       16.91003       51.64215113        1.16743036
       17.00972       52.37385717        1.12866730
       17.10942       56.66309015        1.24100257
       17.20911       61.36097097        1.30302749
       17.30880       66.53350829        1.36884183
       17.40850       67.74988493        1.38100141
       17.50819       73.83416953        1.40015043
       17.60788       74.63035741        1.45141390
       17.70758       74.70213366        1.45809724
       17.80727       74.04066790        1.46951567
       17.90696       73.46525733        1.36859344
       18.00666       66.94680269        1.32911158
       18.10635       61.64151522        1.24029678
       18.20604       60.93067810        1.35274985
       18.30574       57.80907043        1.25567215
       18.40543       54.16785932        1.18526295
       18.50512       54.15387794        1.22251383
       18.60482       52.48866371        1.18462562
       18.70451       53.54681038        1.26446813
       18.80420       51.22695747        1.16176714
       18.90390       49.65549720        1.13153604
       19.00359       50.54100163        1.11177454
       19.10328       49.38299375        1.16264392
       19.20298       48.59390578        1.18917167
       19.30267       46.73255981        1.11982732
       19.40237       46.17483466        1.10050535
       19.50206       46.72165639        1.13485648
       19.60175       44.71193118        1.09765411
       19.70145       47.20132970        1.18270348
       19.80114       45.59928935        1.10246080
       19.90083       46.63585349        1.07728229
       20.00053       46.21085613        1.09137362
       20.10022       45.05959501        1.08565319
       20.19991       46.46863215        1.17875046
       20.29961       47.55833226        1.12993524
       20.39930       49.20020876        1.18406123
       20.49899       49.85332727        1.17121458
       20.59869       51.20980963        1.20880293
       20.69838       51.61856911        1.25838922
       20.79807       53.59796211        1.22313288
       20.89777       53.21229761        1.19113684
       20.99746       55.81162314        1.23212432
       21.09715       58.40401758        1.32774000
       21.19685       57.28169156        1.30801561
       21.29654       58.62071368        1.29084995
       21.39623       54.91890561        1.24933052
       21.49593       55.24950946        1.23518949
       21.59562       52.11592556        1.22840256
       21.69531       51.13771192        1.26560955
       21.79501       47.51742664        1.11590373
       21.89470       46.38385169        1.07766157
       21.99439       45.90196009        1.11748242
       22.09409       45.26932259        1.11248005
       22.19378       46.71262825        1.20019054
       22.29347       45.38203913        1.10170417
       22.39317       47.82145555        1.16032364
       22.49286       46.64224632        1.14496491
       22.59255       46.79054326        1.16027381
       22.69225       47.05870413        1.22620830
       22.79194       50.45151838        1.14039323
       22.89163       51.15002921        1.12583741
       22.99133       56.47718794        1.21604637
       23.09102       62.98903213        1.33404309
       23.19072       64.77169783        1.35606476
       23.29041       67.19160924        1.36408352
       23.39010       68.40518644        1.39082519
       23.48980       67.14966607        1.38294426
       23.58949       62.98149998        1.35709674
       23.68918       62.09186193        1.41691482
       23.78888       58.14295499        1.22177034
       23.88857       52.99491417        1.18147817
       23.98826       48.28555027        1.15276136
       24.08796       46.76338104        1.11228280
       24.18765       48.92115032        1.21909829
       24.28734       44.58206662        1.10786229
       24.38704       47.07215405        1.15750899
       24.48673       43.00735531        1.10228945
       24.58642       45.48204088        1.17116873
       24.68612       44.95573469        1.16281279
       24.78581       43.30911426        1.05204119
       24.88550       44.73517391        1.06883921
       24.98520       43.32770193        1.09074628
       25.08489       44.97932801        1.13359736
       25.18458       46.45528127        1.17630745
       25.28428       47.08469401        1.14142957
       25.38397       47.99366505        1.14683342
       25.48366       49.29484991        1.16928230
       25.58336       52.37943602        1.25642730
       25.68305       62.91001862        1.35095012
       25.78274       70.96408862        1.35449924
       25.88244       85.11947651        1.52143543
       25.98213      105.91716080        1.71181752
       26.08182      131.65359221        1.95961685
       26.18152      154.27318972        2.17340238
       26.28121      179.48377446        2.21845091
       26.38090      194.92871948        2.33201863
       26.48060      197.19036870        2.41030945
       26.58029      188.35908525        2.45724403
       26.67998      168.91112584        2.19707478
       26.77968      148.50646246        2.03520055
       26.87937      114.47311738        1.76005129
       26.97907       91.77064637        1.56208121
       27.07876       80.50090379        1.57499866
       27.17845       78.34937471        1.48485888
       27.27815       77.96724815        1.44649541
       27.37784       82.36751826        1.54488194
       27.47753       85.54350706        1.55128177
       27.57723       85.07929879        1.62060549
       27.67692       82.22108600        1.55491040
       27.77661       76.98582435        1.43588107
       27.87631       69.20863873        1.33854541
       27.97600       63.30471065        1.30886978
       28.07569       54.28434433        1.28245792
       28.17539       50.56678446        1.18482981
       28.27508       50.98858355        1.19031972
       28.37477       49.30189123        1.19825611
       28.47447       51.00265652        1.20930287
       28.57416       53.63736193        1.34087026
       28.67385       50.14095228        1.15326601
       28.77355       53.81449137        1.17335120
       28.87324       54.09972574        1.20779517
       28.97293       55.97441266        1.23148780
       29.07263       58.68411515        1.37462181
       29.17232       57.54371643        1.24216435
       29.27201       56.72165441        1.25601371
       29.37171       54.54739741        1.26697826
       29.47140       50.84935142        1.20900987
       29.57109       49.79576939        1.26864337
       29.67079       47.77234431        1.13117395
       29.77048       48.55179867        1.14304228
       29.87017       47.62572322        1.10983239
       29.96987       46.82495382        1.15383356
       30.06956       48.22509590        1.20811567
       30.16925       47.64913038        1.13067896
       30.26895       47.46656734        1.13281456
       30.36864       47.28926092        1.14916703
       30.46833       50.60343928        1.20093767
       30.56803       51.23501903        1.27650458
       30.66772       55.84151667        1.24032409
       30.76742       60.53066089        1.26569470
       30.86711       61.70546573        1.30342292
       30.96680       63.19490169        1.32674504
       31.06650       64.01957847        1.40025099
       31.16619       63.57758982        1.31200395
       31.26588       56.93762290        1.23386419
       31.36558       57.44796586        1.25564039
       31.46527       57.68306644        1.30919198
       31.56496       58.57082537        1.34045133
       31.66466       64.22132264        1.31289693
       31.76435       70.67690414        1.37614514
       31.86404       76.17584803        1.41008776
       31.96374       81.49859764        1.49255295
       32.06343       86.40475559        1.59061613
       32.16312       88.16900649        1.51012683
       32.26282       84.95063572        1.51841889
       32.36251       78.15941181        1.51445997
       32.46220       73.04911961        1.49018565
       32.56190       71.12214899        1.49643599
       32.66159       69.08533365        1.40051700
       32.76128       65.75689362        1.33556267
       32.86098       62.55883345        1.32209898
       32.96067       61.93982855        1.33199634
       33.06036       61.66376448        1.35326333
       33.16006       59.38825454        1.25061083
       33.25975       55.36953204        1.24661011
       33.35944       55.23817467        1.25187266
       33.45914       54.49190661        1.29064773
       33.55883       56.88315013        1.32185799
       33.65852       62.92517141        1.29669034
       33.75822       67.13249942        1.33716293
       33.85791       73.04477928        1.40067153
       33.95760       82.40856270        1.53202790
       34.05730       94.84197261        1.62806131
       34.15699      106.04788575        1.69453570
       34.25668      124.97929894        1.83387189
       34.35638      145.61020705        2.03111053
       34.45607      183.14326763        2.40038382
       34.55577      231.94294090        2.57581362
       34.65546      291.63443656        2.77132901
       34.75515      364.72360441        3.16024945
       34.85485      423.21748653        3.37993742
       34.95454      451.81792631        3.60333508
       35.05423      433.05863107        3.64731485
       35.15393      380.75417087        3.20963348
       35.25362      315.01249762        2.96368113
       35.35331      246.80047047        2.69014784
       35.45301      188.38982584        2.45120131
       35.55270      140.76094557        2.06178808
       35.65239      107.21123930        1.73698420
       35.75209       88.69401332        1.56781598
       35.85178       81.54858236        1.50113185
       35.95147       71.61059376        1.43939524
       36.05117       68.08404365        1.37450136
       36.15086       64.80659118        1.28931387
       36.25055       61.65127734        1.31370915
       36.35025       60.54012953        1.32727694
       36.44994       59.95453419        1.34722846
       36.54963       57.24344686        1.26358912
       36.64933       56.64444751        1.23818063
       36.74902       55.72114497        1.24084156
       36.84871       54.22410570        1.21516522
       36.94841       53.68222799        1.30752095
       37.04810       50.72865129        1.12062273
       37.14779       51.95275096        1.15736737
       37.24749       50.17258293        1.16893109
       37.34718       48.31614172        1.17628635
       37.44687       46.52156495        1.23979806
       37.54657       49.13053347        1.16326596
       37.64626       46.46985292        1.12688560
       37.74595       48.44289866        1.13264907
       37.84565       46.03397563        1.16816845
       37.94534       45.82895871        1.18740604
       38.04503       45.57728911        1.07024801
       38.14473       49.11993501        1.12209214
       38.24442       46.95764499        1.11708282
       38.34412       46.11531048        1.15733786
       38.44381       48.49793358        1.28344897
       38.54350       46.60657677        1.12147597
       38.64320       49.29557497        1.14998744
       38.74289       49.98974617        1.17323076
       38.84258       53.63274892        1.21832331
       38.94228       55.35847245        1.29833432
       39.04197       60.93946049        1.22854830
       39.14166       66.17996579        1.33204539
       39.24136       67.60053054        1.34267980
       39.34105       69.61312424        1.41011506
       39.44074       71.32870437        1.55702879
       39.54044       71.51529092        1.39402035
       39.64013       68.35022462        1.35851802
       39.73982       67.61817061        1.35667738
       39.83952       61.41185524        1.28391688
       39.93921       58.71091161        1.33097448
       40.03890       61.36677255        1.24569991
       40.13860       58.33510275        1.21284388
       40.23829       56.06142090        1.23093840
       40.33798       56.37825590        1.27290612
       40.43768       56.34223017        1.33137919
       40.53737       54.91449944        1.21987314
       40.63706       57.11805286        1.27032713
       40.73676       58.67071873        1.28550257
       40.83645       58.56174457        1.29502388
       40.93614       64.32895112        1.38031046
       41.03584       65.42571476        1.31002512
       41.13553       79.78707709        1.44892033
       41.23522       94.85572107        1.61875341
       41.33492      115.55486451        1.87108444
       41.43461      138.13157503        2.11210526
       41.53430      163.61348036        2.15360089
       41.63400      190.16776462        2.37351268
       41.73369      213.11777035        2.45887449
       41.83338      214.38717643        2.53180165
       41.93308      216.01272051        2.51880811
       42.03277      221.77487636        2.33295421
       42.13247      242.91417141        2.56697637
       42.23216      289.17521780        2.80749717
       42.33185      352.44292285        3.32923829
       42.43155      419.35111648        3.58001742
       42.53124      479.41399931        3.70727805
       42.63093      520.94533487        3.87213037
       42.73063      546.37564898        3.98463464
       42.83032      531.12429703        3.99761732
       42.93001      493.42258971        3.70745050
       43.02971      426.74502908        3.25603426
       43.12940      341.48454266        2.96979770
       43.22909      261.63246618        2.73022705
       43.32879      195.39341670        2.48361149
       43.42848      150.49329374        2.13070257
       43.52817      110.82968388        1.74831746
       43.62787       86.25359833        1.53655127
       43.72756       73.84449886        1.45506260
       43.82725       67.91218670        1.45690483
       43.92695       61.75315692        1.25960913
       44.02664       58.11716148        1.21600160
       44.12633       53.93179608        1.21489713
       44.22603       56.93068100        1.29936398
       44.32572       54.12184165        1.33513737
       44.42541       54.50053248        1.27919425
       44.52511       56.23236617        1.26448722
       44.62480       56.70669796        1.28778061
       44.72449       57.23177562        1.25374551
       44.82419       60.25250385        1.44361596
       44.92388       67.27062583        1.27243830
       45.02357       75.55343758        1.35981359
       45.12327       89.09017093        1.52139215
       45.22296      102.56359516        1.67570271
       45.32265      121.02768399        2.01415904
       45.42235      147.67881659        2.02680646
       45.52204      177.67756597        2.20190298
       45.62174      203.57017932        2.40056244
       45.72143      224.46404030        2.52138557
       45.82112      230.90524830        2.79947823
       45.92082      237.35182275        2.40999914
       46.02051      232.43100918        2.43549033
       46.12020      232.99198782        2.44679098
       46.21990      218.59968749        2.48988141
       46.31959      203.33409628        2.59264081
       46.41928      178.88431443        2.24503788
       46.51898      149.57146088        2.06314926
       46.61867      124.94466030        1.87535410
       46.71836       99.69031970        1.71722120
       46.81806       83.07553710        1.62486260
       46.91775       69.40896906        1.29415053
       47.01744       63.93943061        1.27155543
       47.11714       62.97921378        1.29074851
       47.21683       66.96884951        1.37032632
       47.31652       77.54946864        1.60918555
       47.41622       86.44894541        1.60138062
       47.51591      102.13650007        1.74437667
       47.61560      112.97226650        1.81936494
       47.71530      129.52136439        1.96959367
       47.81499      145.53761382        2.14092001
       47.91468      158.56840782        1.95527444
       48.01438      171.96382302        2.03764537
       48.11407      178.06272645        2.15130650
       48.21376      179.00501623        2.25213712
       48.31346      171.55383308        2.28293768
       48.41315      159.47609598        2.05122825
       48.51284      141.19206737        1.99359181
       48.61254      122.75880068        1.85076294
       48.71223      105.42486777        1.74572608
       48.81192       88.90621282        1.59879602
       48.91162       76.15119755        1.32610177
       49.01131       63.11819457        1.24920787
       49.11100       58.03225269        1.24082882
       49.21070       54.73054714        1.26500338
       49.31039       51.37893735        1.26128815
       49.41009       49.02944188        1.16386897
       49.50978       48.50253070        1.18153025
       49.60947       48.33785857        1.18815033
       49.70917       48.97330686        1.24030748
       49.80886       50.25055847        1.22282132
       49.90855       49.63595789        1.10705482
       50.00825       50.04519042        1.13510450
       50.10794       48.97982355        1.14847103
       50.20763       50.43509432        1.21764364
       50.30733       50.40636647        1.27510252
       50.40702       52.14590311        1.21628048
       50.50671       53.65070911        1.23739366
       50.60641       57.37565716        1.28160929
       50.70610       57.73724817        1.32289436
       50.80579       54.23115584        1.26502397
       50.90549       58.76502883        1.18743431
       51.00518       54.92327560        1.15798540
       51.10487       54.61271847        1.19359786
       51.20457       53.26465811        1.25485157
       51.30426       56.86780338        1.29001885
       51.40395       56.22709907        1.22969044
       51.50365       56.07141857        1.24200508
       51.60334       58.11774521        1.28953042
       51.70303       59.27669969        1.38305203
       51.80273       59.48576285        1.27087694
       51.90242       60.82591958        1.20075026
       52.00211       62.22345079        1.22026923
       52.10181       62.60495132        1.26276129
       52.20150       64.56728152        1.41236863
       52.30119       61.77015592        1.33060622
       52.40089       61.43674495        1.30621583
       52.50058       62.09812861        1.33806812
       52.60027       61.13736240        1.34576526
       52.69997       60.65310108        1.46896047
       52.79966       59.76993126        1.22593829
       52.89935       65.72543057        1.24067610
       52.99905       73.68614280        1.33544169
       53.09874       86.85540213        1.49715345
       53.19844      103.24151847        1.86998802
       53.29813      116.35599188        1.76471207
       53.39782      121.96328528        1.86903262
       53.49752      134.66784262        1.97340118
       53.59721      144.71326942        2.04452803
       53.69690      144.19199597        2.23906586
       53.79660      150.28126422        1.91512851
       53.89629      150.29995635        1.89459500
       53.99598      142.99557943        1.89278712
       54.09568      137.01309784        1.93462190
       54.19537      126.72171576        2.02868515
       54.29506      114.52274403        1.77124481
       54.39476      104.33062371        1.70329884
       54.49445       99.26242859        1.66245301
       54.59414       90.07619475        1.60735154
       54.69384       85.81277227        1.67345287
       54.79353       84.23840868        1.42176978
       54.89322       83.05417613        1.40662689
       54.99292       80.94852354        1.42927397
       55.09261       72.89744303        1.41015167
       55.19230       68.63779291        1.46925790
       55.29200       65.85419776        1.33939320
       55.39169       63.14864804        1.35323882
       55.49138       58.78365982        1.30061282
       55.59108       56.60534075        1.31713122
       55.69077       56.71398488        1.35303708
       55.79046       54.68216798        1.16146865
       55.89016       56.26947054        1.17545623
       55.98985       55.14140021        1.17102646
       56.08954       58.00199268        1.24071635
       56.18924       64.21944843        1.40921300
       56.28893       72.18670095        1.36773196
       56.38862       82.78308076        1.51547962
       56.48832       95.03566575        1.65220716
       56.58801      103.35625517        1.77314030
       56.68770      111.84787466        1.90415503
       56.78740      114.94489968        1.65215331
       56.88709      114.62274116        1.66628940
       56.98679      106.62836543        1.60821396
       57.08648       97.00161739        1.62564791
       57.18617       86.79130025        1.59180857
       57.28587       78.14213440        1.41093865
       57.38556       66.82739806        1.38854236
       57.48525       62.69816071        1.37068425
       57.58495       57.23018568        1.33935557
       57.68464       54.54199036        1.31882523
       57.78433       52.76452354        1.13469149
       57.88403       54.43562287        1.16602484
       57.98372       53.48440716        1.17415751
       58.08341       52.28442223        1.25516123
       58.18311       54.28824555        1.30841251
       58.28280       54.38248143        1.23345254
       58.38249       52.12720347        1.26173416
       58.48219       54.55250609        1.31873695
       58.58188       53.17990483        1.31621689
       58.68157       54.68683441        1.30799618
       58.78127       51.95709290        1.11508052
       58.88096       54.85023454        1.12891592
       58.98065       55.84031038        1.18247194
       59.08035       56.92443147        1.27399454
       59.18004       57.54509447        1.29939871
       59.27973       58.96898110        1.24109404
       59.37943       63.57325791        1.33131466
       59.47912       65.64550718        1.40836806
       59.57881       70.51709761        1.52937284
       59.67851       75.17791082        1.47239823
       59.77820       84.51028271        1.43549015
       59.87789       95.81027548        1.52349943
       59.97759      104.07745001        1.66138134
       60.07728      107.84438023        1.83154343
       60.17697      107.93890199        1.74549985
       60.27667      111.04750392        1.72147423
       60.37636      108.05423718        1.73087245
       60.47605      105.31970010        1.78256881
       60.57575       99.42777765        1.89784522
       60.67544       93.27038515        1.57894418
       60.77514       85.19446630        1.43430681
       60.87483       76.08042164        1.32879084
       60.97452       71.41285164        1.35609887
       61.07422       68.09725991        1.48749359
       61.17391       66.63272758        1.27453023
       61.27360       66.20685499        1.31554518
       61.37330       66.51134238        1.36748316
       61.47299       66.41630395        1.42655633
       61.57268       71.27968626        1.68088124
       61.67238       70.74610113        1.36479259
       61.77207       69.55927622        1.31795617
       61.87176       71.63963050        1.32271402
       61.97146       71.27343336        1.36972799
       62.07115       70.01067873        1.53743718
       62.17084       69.13852772        1.33852825
       62.27054       69.29586399        1.39725900
       62.37023       68.99223678        1.44972038
       62.46992       65.97910692        1.46614493
       62.56962       69.55562010        1.69095455
       62.66931       70.52407193        1.37171596
       62.76900       72.97150363        1.36008230
       62.86870       81.86393280        1.40952305
       62.96839       92.09374988        1.54316074
       63.06808       95.08667796        1.74507593
       63.16778      105.33984684        1.63093398
       63.26747      112.68988750        1.74595974
       63.36716      113.91178380        1.82167614
       63.46686      120.90402489        1.93340810
       63.56655      121.79076896        2.06147242
       63.66624      132.93333956        1.83112552
       63.76594      145.83375787        1.86364081
       63.86563      160.41983631        1.94933957
       63.96532      172.58157952        2.11641613
       64.06502      174.88030884        2.28248355
       64.16471      172.25123389        2.09516588
       64.26440      161.65944801        2.11241700
       64.36410      148.38115405        2.06405448
       64.46379      135.47189500        2.08517836
       64.56349      122.16945777        2.01477261
       64.66318      108.63329810        1.66238653
       64.76287       86.76072460        1.46642415
       64.86257       74.32794237        1.35479101
       64.96226       63.52071353        1.31146536
       65.06195       59.83392479        1.37620130
       65.16165       54.61648007        1.18588369
       65.26134       53.25098265        1.19832625
       65.36103       52.65216034        1.24335209
       65.46073       54.47368531        1.30631199
       65.56042       54.97012795        1.37058972
       65.66011       55.40119766        1.19979134
       65.75981       58.40360418        1.21967756
       65.85950       61.44512982        1.24317718
       65.95919       62.11268359        1.30841448
       66.05889       62.84484233        1.36132568
       66.15858       71.25412506        1.37876586
       66.25827       75.34945908        1.46641086
       66.35797       83.41469185        1.60756389
       66.45766       94.53793379        1.81885453
       66.55735      109.29951297        1.95586695
       66.65705      124.99349820        1.85596192
       66.75674      143.28932668        1.93724154
       66.85643      155.30070588        1.99433079
       66.95613      161.25565847        2.11314264
       67.05582      168.04676433        2.17374065
       67.15551      169.88983673        2.08000985
       67.25521      163.32107749        2.14029225
       67.35490      156.70690110        2.20693781
       67.45459      137.37311273        2.17822505
       67.55429      121.22683361        1.95987473
       67.65398      106.52472347        1.64636527
       67.75367       89.60611693        1.49703412
       67.85337       79.14679357        1.42390577
       67.95306       76.56719282        1.49750527
       68.05275       72.96003006        1.38399499
       68.15245       78.60575037        1.42439416
       68.25214       89.47761940        1.61347881
       68.35184       96.53410411        1.74684300
       68.45153      103.47510951        1.99126370
       68.55122      110.68174269        1.77441264
       68.65092      119.53152654        1.71908677
       68.75061      122.60965178        1.75908458
       68.85030      129.52773449        1.84322090
       68.95000      124.14818450        2.04554614
       69.04969      124.15316948        1.72761888
       69.14938      112.48892135        1.69047871
       69.24908      103.34510903        1.73008235
       69.34877       92.62227495        1.69359218
       69.44846       85.60849994        1.88833777
       69.54816       76.81388141        1.39433308
       69.64785       66.36083371        1.27739866
       69.74754       58.14393184        1.20744847
       69.84724       56.52147124        1.22149571
       69.94693       55.46496612        1.36555733
       70.04662       51.15454493        1.07828299
       70.14632       48.96624804        1.09693914
       70.24601       45.94354991        1.13757822
       70.34570       47.99505283        1.23044750
       70.44540       47.21750523        1.43792720
       70.54509       49.71917896        1.15504736
       70.64478       47.81821957        1.13106449
       70.74448       51.06188947        1.18745827
       70.84417       50.01081539        1.21941288
       70.94386       50.19894167        1.34109761
       71.04356       52.00662813        1.12963118
       71.14325       52.47919625        1.17922758
       71.24294       52.78839639        1.24440081
       71.34264       51.24281986        1.29996197
       71.44233       52.07068212        1.46233075
       71.54202       57.10763397        1.24699345
       71.64172       53.71131132        1.17624544
       71.74141       54.74539830        1.16600771
       71.84110       52.68041626        1.18393276
       71.94080       53.31904350        1.29794270
       72.04049       53.08798555        1.09618845
       72.14019       51.24413229        1.12204135
       72.23988       49.83485504        1.15769112
       72.33957       51.49503202        1.31458830
       72.43927       54.72226024        1.49192422
       72.53896       54.09576886        1.18930761
       72.63865       52.65252037        1.14682375
       72.73835       54.36702786        1.13978502
       72.83804       54.82452780        1.20864391
       72.93773       59.13850190        1.33360215
       73.03743       60.96760547        1.17542085
       73.13712       63.08723865        1.26102746
       73.23681       62.98114189        1.32370374
       73.33651       62.13233801        1.44664918
       73.43620       63.51179539        1.58430210
       73.53589       65.31394236        1.29612716
       73.63559       63.13481508        1.25421501
       73.73528       65.25275055        1.26937968
       73.83497       63.85150480        1.33115808
       73.93467       66.61462377        1.43186016
       74.03436       68.40980027        1.28423400
       74.13405       64.37065258        1.29852350
       74.23375       60.32202619        1.30918534
       74.33344       62.73133274        1.46985806
       74.43313       63.99763781        1.54060081
       74.53283       64.45499516        1.31364452
       74.63252       64.76933039        1.30731320
       74.73221       69.62616046        1.34903845
       74.83191       75.96901976        1.49513442
       74.93160       79.02477719        1.54223116
       75.03129       80.65919672        1.38523678
       75.13099       84.65101607        1.47005270
       75.23068       89.46622135        1.57656353
       75.33037       97.44146393        1.80896175
       75.43007      100.78045280        1.86633922
       75.52976      110.36217859        1.69681385
       75.62945      119.46515356        1.76425431
       75.72915      128.48747789        1.82282477
       75.82884      133.25873440        1.99887431
       75.92854      137.53078728        1.90646421
       76.02823      143.44778060        1.82634485
       76.12792      147.35110239        1.93489450
       76.22762      152.30158134        2.07575796
       76.32731      153.26709824        2.35182023
       76.42700      150.05710201        2.19608528
       76.52670      146.02246389        1.99831578
       76.62639      141.33804880        1.94090444
       76.72608      128.84918762        1.82172254
       76.82578      121.07935074        2.03436825
       76.92547      125.17977363        1.65711805
       77.02516      122.62795020        1.69978763
       77.12486      121.85222448        1.77987805
       77.22455      129.74159207        1.95605922
       77.32424      130.30065871        2.40823105
       77.42394      133.42994448        1.94602612
       77.52363      135.84503411        1.89756613
       77.62332      138.69283747        1.90871460
       77.72302      140.50922101        1.92557713
       77.82271      145.34634924        2.29710090
       77.92240      148.27485630        1.77677901
       78.02210      145.58895958        1.89959154
       78.12179      143.68644921        2.01545465
       78.22148      140.66696081        2.10859286
       78.32118      133.51164326        2.38315159
       78.42087      129.30008189        1.84556985
       78.52056      122.49306430        1.85468014
       78.62026      114.58759680        1.77936293
       78.71995      105.32847183        1.71122231
       78.81964      101.47436524        1.87595684
       78.91934       92.68170058        1.38884968
       79.01903       83.04239486        1.44089973
       79.11872       73.00140650        1.40554050
       79.21842       72.78624238        1.49720275
       79.31811       66.74624701        1.61466354
       79.41780       65.97312674        1.30218414
       79.51750       69.13861893        1.35468430
       79.61719       64.05045644        1.30748682
       79.71689       65.39474326        1.37171687
       79.81658       64.41486629        1.44309763
       79.91627       64.02535453        1.21952242
       80.01597       61.70225556        1.23043999
       80.11566       61.39110368        1.28299515
       80.21535       61.01894658        1.36727980
       80.31505       63.12669242        1.65332329
       80.41474       63.44323950        1.27363472
       80.51443       67.98584765        1.31287701
       80.61413       70.35774423        1.37998183
       80.71382       77.24372108        1.49610980
       80.81351       84.62151625        1.76001761
       80.91321       88.72338164        1.32908146
       81.01290      105.86501670        1.56800234
       81.11259      124.11743056        1.83332805
       81.21229      142.91403757        2.12877585
       81.31198      153.15427951        2.45858817
       81.41167      169.82995972        2.02766385
       81.51137      193.27925319        2.22635011
       81.61106      210.22971519        2.42521822
       81.71075      226.53828476        2.60642323
       81.81045      236.19943280        2.81994477
       81.91014      255.36678858        2.25544771
       82.00983      277.10454380        2.51248927
       82.10953      285.56961325        2.85361778
       82.20922      290.24864278        3.19965291
       82.30891      293.59542101        3.37448713
       82.40861      295.14097148        2.75141094
       82.50830      288.47501244        2.71250433
       82.60799      285.56027586        2.90685470
       82.70769      285.37081450        3.16237885
       82.80738      290.65954537        3.04998766
       82.90707      275.45733257        2.40992319
       83.00677      271.90295122        2.55121036
       83.10646      263.21993589        2.95317809
       83.20615      256.48547334        3.24467860
       83.30585      238.84499641        2.96504093
       83.40554      218.45188728        2.35654682
       83.50524      200.79702870        2.20392722
       83.60493      187.66729605        2.34692321
       83.70462      169.37048134        2.51317073
       83.80432      153.94257793        2.09326795
       83.90401      133.86798897        1.63681609
       84.00370      112.50423748        1.56431876
       84.10340       95.09489909        1.71788700
       84.20309       90.79127409        2.03773329
       84.30278       77.97442367        1.53524205
       84.40248       75.78519245        1.33577183
       84.50217       68.50102261        1.24559480
       84.60186       68.65551895        1.41006435
       84.70156       63.00881059        1.76733549
       84.80125       63.75527551        1.23775009
       84.90094       64.16574504        1.11548287
       85.00064       64.46698676        1.15198714
       85.10033       65.47810218        1.37404704
       85.20002       63.31252574        2.31715471
       85.29972       67.33703692        1.26074212
       85.39941       67.52378101        1.28717446
       85.49910       66.72327819        1.24426672
       85.59880       69.09736478        1.42392589
       85.69849       70.40995442        2.58072669
       85.79818       64.00181837        1.15977090
       85.89788       64.87013496        1.13974865
       85.99757       65.28766648        1.17487461
       86.09726       64.36221970        1.33929142
       86.19696       59.38145462        2.47034481
       86.29665       62.08208735        1.19543822
       86.39634       64.46692365        1.23942826
       86.49604       59.42693867        1.17178931
       86.59573       55.23957372        1.20355787
       86.69542       52.36158990        2.44971854
       86.79512       53.85185174        1.03132420
       86.89481       55.18799448        1.02937625
       86.99451       52.88479385        1.04440606
       87.09420       54.20883501        1.17934259
       87.19389       55.42304163        2.82483681
       87.29359       54.05315019        1.13053896
       87.39328       52.28366806        1.12683237
       87.49297       49.51194092        1.06440312
       87.59267       50.57576465        1.09697274
       87.69236       46.99610717        3.16377044
       87.79205       48.86190484        1.00499246
       87.89175       48.18337392        0.98993173
       87.99144       49.25515728        1.04297137
       88.09113       51.58068202        1.13451389
       88.19083       47.06551281        5.73385086
       88.29052       49.15115985        1.11435640
       88.39021       50.12160304        1.13284305
       88.48991       47.84621322        1.06215893
       88.58960       46.85091190        1.01781859
       88.68929       48.41741864        8.01587696
       88.78899       49.44974035        1.00940629
       88.88868       47.98844903        0.97261228
       88.98837       51.53079234        1.04840942
       89.08807       49.48699123        1.05227208
       89.18776       52.20904593        8.79503705
       89.28745       50.24691518        1.07732588
       89.38715       53.95805541        1.12801618
       89.48684       54.01317812        1.10444580
       89.58653       57.03671495        1.11199635
       89.68623       56.90809737        9.00452136
       89.78592       61.44798147        1.12167999
       89.88561       63.07455258        1.11418023
       89.98531       65.92555296        1.16811927
       90.08500       68.84030746        1.23810928
       90.18469       81.22032899       11.22096442
       90.28439       75.49413911        1.32447629
       90.38408       76.66361992        1.35712513
       90.48377       87.54112050        1.42348868
       90.58347       91.83071673        1.43520986
       90.68316      104.37355026       11.92384380
       90.78286       91.09075522        1.36822991
       90.88255       93.21178684        1.34683914
       90.98224       95.25233966        1.40874798
       91.08194      101.32774593        1.50096905
       91.18163      106.98149758       12.30933897
       91.28132       97.81960989        1.51821848
       91.38102       99.91732383        1.57524811
       91.48071       98.37577339        1.52461352
       91.58040       92.85872196        1.43227742
       91.68010       92.61207906       10.82116364
       91.77979       87.64709109        1.33555407
       91.87948       82.22387863        1.27336119
       91.97918       77.71316600        1.28528587
       92.07887       78.28859341        1.34383780
       92.17856       74.21029230        9.94660375
       92.27826       78.28899214        1.38791586
       92.37795       76.47630991        1.40420604
       92.47764       76.10788134        1.32978147
       92.57734       78.78175722        1.31261343
       92.67703       70.82436984        8.07649015
       92.77672       77.87148483        1.25772253
       92.87642       83.44965762        1.27737724
       92.97611       85.48615896        1.35010947
       93.07580       87.68197759        1.56068769
       93.17550       92.29071979        3.01133483
       93.27519       90.53759500        1.46190413
       93.37488       91.93863539        1.43209760
       93.47458       98.77174032        1.50104218
       93.57427       98.79554461        1.73560224
       93.67396       97.75918474        2.33309920
       93.77366       98.53455512        1.45107360
       93.87335       96.78045790        1.37358195
       93.97304       95.78065569        1.42398665
       94.07274       90.87587207        1.80049087
       94.17243       87.68160789        2.01774101
       94.27212       90.45332377        1.52656304
       94.37182       90.20577436        1.48573639
       94.47151       90.54319820        1.42553147
       94.57121       86.89520497        1.84284009
       94.67090       82.66466192        1.81796697
       94.77059       86.41752903        1.44515056
       94.87029       77.07536084        1.24066289
       94.96998       72.73731422        1.22033057
       95.06967       68.83616703        1.36835043
       95.16937       68.97454293        1.87503236
       95.26906       65.94869418        1.41623284
       95.36875       62.97476351        1.25564784
       95.46845       63.26867153        1.20955951
       95.56814       60.78229576        1.36409104
       95.66783       59.45645303        1.51561757
       95.76753       57.60197752        1.23268621
       95.86722       56.07940276        1.03453929
       95.96691       54.64447197        1.05920723
       96.06661       54.86204899        1.35957554
       96.16630       51.80105174        1.40866970
       96.26599       53.05150286        1.28031153
       96.36569       53.39671750        1.15254270
       96.46538       49.62896611        1.07220262
       96.56507       47.58987996        1.29581327
       96.66477       48.28990918        1.27196156
       96.76446       45.28650783        1.10061744
       96.86415       48.07898107        0.98239822
       96.96385       48.96194714        1.02397037
       97.06354       49.19942754        1.38798309
       97.16323       47.77740222        1.30774608
       97.26293       47.06660446        1.21942294
       97.36262       47.85019785        1.13861707
       97.46231       49.84565655        1.06920138
       97.56201       48.90061287        1.34728206
       97.66170       51.43768476        1.24121682
       97.76139       52.01941540        1.13401243
       97.86109       52.55360355        1.03070063
       97.96078       52.26132044        1.05027182
       98.06047       57.13084232        1.52551895
       98.16017       57.06432248        1.35533688
       98.25986       57.58128387        1.30046219
       98.35956       58.61471327        1.23876657
       98.45925       60.80376115        1.17774378
       98.55894       63.44181989        1.56943486
       98.65864       67.80495790        1.39234335
       98.75833       66.91441528        1.29234461
       98.85802       68.19959697        1.21827071
       98.95772       71.57240100        1.23984810
       99.05741       74.19396967        1.75261303
       99.15710       72.55883793        1.49045478
       99.25680       76.80937892        1.48587925
       99.35649       78.98775047        1.43522230
       99.45618       77.70469130        1.32652886
       99.55588       82.84590495        1.83051365
       99.65557       87.19182243        1.54949122
       99.75526       84.57313501        1.43018104
       99.85496       89.11562933        1.39751485
       99.95465       84.38699947        1.33302880
      100.05434       88.88134532        1.94922594
      100.15404       85.74228165        1.61238943
      100.25373       85.06101465        1.58669996
      100.35342       85.19931248        1.58179043
      100.45312       82.78728663        1.42268737
      100.55281       85.45280269        1.89859135
      100.65250       84.53368471        1.53831735
      100.75220       82.99758412        1.41183467
      100.85189       80.16012329        1.32561931
      100.95158       80.46965671        1.29270413
      101.05128       77.26847474        1.80577516
      101.15097       78.65171509        1.50580565
      101.25066       78.53906021        1.48668167
      101.35036       77.90889306        1.49350843
      101.45005       74.74671070        1.37549132
      101.54974       75.24887608        1.71899634
      101.64944       71.65146283        1.36837906
      101.74913       75.42399811        1.32299046
      101.84882       76.70424461        1.29876760
      101.94852       77.14336029        1.37200918
      102.04821       77.35974545        1.65487120
      102.14791       81.00914139        1.52638737
      102.24760       80.17625421        1.50565259
      102.34729       81.21041100        1.50920248
      102.44699       78.45467161        1.50901968
      102.54668       83.40901227        1.63295991
      102.64637       81.99806827        1.44597367
      102.74607       81.33127814        1.37145640
      102.84576       86.24827081        1.38572624
      102.94545       86.26863796        1.57846059
      103.04515       85.51592021        1.66364964
      103.14484       85.04338544        1.55003078
      103.24453       83.68857551        1.51384006
      103.34423       87.60929333        1.53656848
      103.44392       88.12379025        1.66936621
      103.54361       87.22869320        1.61339343
      103.64331       85.99755478        1.45815376
      103.74300       85.09392653        1.38351185
      103.84269       85.64894585        1.36401567
      103.94239       86.92636948        1.65141709
      104.04208       82.07082600        1.55211584
      104.14177       85.47672636        1.54126950
      104.24147       83.97753553        1.52683604
      104.34116       85.12237412        1.54681404
      104.44085       82.49557033        1.72932657
      104.54055       79.67503126        1.53856477
      104.64024       79.04932386        1.44052067
      104.73993       77.30262441        1.35928134
      104.83963       72.46318196        1.26771071
      104.93932       73.40302691        1.54682480
      105.03901       72.23564804        1.44579675
      105.13871       71.21262847        1.38218420
      105.23840       70.78824990        1.37724773
      105.33809       68.53033638        1.36299605
      105.43779       68.75608915        1.58852383
      105.53748       67.61343183        1.41262898
      105.63717       63.73392917        1.25697256
      105.73687       62.70393285        1.18649247
      105.83656       60.98441711        1.14011362
      105.93626       61.84079268        1.45496086
      106.03595       61.65215159        1.31664888
      106.13564       57.22092238        1.22578682
      106.23534       55.29121785        1.21969554
      106.33503       56.20568881        1.24220381
      106.43472       55.26644101        1.45619823
      106.53442       53.45806739        1.24563421
      106.63411       54.59637350        1.14356502
      106.73380       54.34996121        1.08745343
      106.83350       54.50196663        1.07272079
      106.93319       54.53692563        1.39103457
      107.03288       54.22993856        1.22936546
      107.13258       57.10892587        1.22465855
      107.23227       56.64852864        1.23739388
      107.33196       56.86939210        1.23641038
      107.43166       57.32640045        1.49158169
      107.53135       56.83889609        1.28142912
      107.63104       59.67453968        1.19569093
      107.73074       63.55897198        1.18406838
      107.83043       62.31260547        1.15753076
      107.93012       62.19652034        1.52982683
      108.02982       62.66810600        1.34408410
      108.12951       64.78958207        1.29972043
      108.22920       64.42962657        1.27530633
      108.32890       65.24345428        1.27113654
      108.42859       65.64461176        1.61824457
      108.52828       68.55739796        1.40294056
      108.62798       67.13741692        1.25881876
      108.72767       70.43869265        1.23775040
      108.82736       67.52888292        1.23849168
      108.92706       65.82681093        1.54855429
      109.02675       66.99707470        1.36677068
      109.12644       65.15090610        1.31539346
      109.22614       66.12782601        1.32630714
      109.32583       66.34506487        1.44764542
      109.42552       67.32514514        1.53828541
      109.52522       66.47567384        1.37901129
      109.62491       64.37660093        1.29070202
      109.72461       62.75918251        1.21831516
      109.82430       59.89699282        1.11170084
      109.92399       59.10685070        1.43581252
      110.02369       60.96683983        1.27706542
      110.12338       61.25707397        1.27177365
      110.22307       60.64450396        1.25590166
      110.32277       58.78814216        1.26261572
      110.42246       57.83053996        1.52259047
      110.52215       56.92192155        1.27936797
      110.62185       56.05817144        1.19653072
      110.72154       55.25890892        1.10828812
      110.82123       56.29258184        1.15529599
      110.92093       57.05956205        1.35663711
      111.02062       53.93274484        1.21837610
      111.12031       56.10647475        1.25206100
      111.22001       55.42605816        1.22110402
      111.31970       55.98358063        1.33190991
      111.41939       57.56229043        1.39759305
      111.51909       56.06188170        1.25144234
      111.61878       57.35167011        1.19241840
      111.71847       60.93838172        1.14371766
      111.81817       63.89543528        1.27122791
      111.91786       67.83407590        1.37861663
      112.01755       65.56758769        1.32335527
      112.11725       70.30464604        1.38093455
      112.21694       70.71411115        1.37875025
      112.31663       75.57992750        1.57098515
      112.41633       76.99355653        1.55776162
      112.51602       77.85578363        1.44255929
      112.61571       80.24875913        1.39719582
      112.71541       83.03517716        1.33949586
      112.81510       84.55565475        1.51570941
      112.91479       87.71705384        1.57275433
      113.01449       86.83463840        1.53230789
      113.11418       88.55377395        1.54232289
      113.21387       87.87292330        1.52935663
      113.31357       88.21605769        1.70180213
      113.41326       90.89371574        1.64181913
      113.51296       90.63550642        1.54216862
      113.61265       92.78402327        1.50568531
      113.71234       93.60731990        1.44459764
      113.81204       91.49112393        1.63604892
      113.91173       91.23122086        1.58309467
      114.01142       86.06332754        1.52183943
      114.11112       89.93844889        1.55511023
      114.21081       88.36025850        1.55246881
      114.31050       86.92777506        1.74614399
      114.41020       88.34085994        1.62667618
      114.50989       87.99660541        1.51984695
      114.60958       88.35880872        1.47382209
      114.70928       84.20496522        1.38745296
      114.80897       84.23017155        1.57386438
      114.90866       82.84703715        1.47216234
      115.00836       83.95203503        1.47507802
      115.10805       85.66924930        1.49829431
      115.20774       84.87931812        1.51389771
      115.30744       87.52757353        1.76530398
      115.40713       86.15882483        1.58631301
      115.50682       89.47994367        1.52637060
      115.60652       87.17796949        1.45190962
      115.70621       88.10002589        1.40279496
      115.80590       86.81129321        1.62438729
      115.90560       93.23191153        1.52610887
      116.00529       93.62064339        1.54637145
      116.10498       96.79672622        1.58898933
      116.20468       99.16308143        1.64535684
      116.30437       95.37905281        1.92332439
      116.40406       99.83303002        1.71406853
      116.50376      103.81866492        1.65203354
      116.60345      103.01480704        1.57963047
      116.70314      109.71754609        1.58112690
      116.80284      115.69160718        1.92955568
      116.90253      117.25735825        1.74753462
      117.00222      121.93026846        1.76820994
      117.10192      126.27659951        1.84794210
      117.20161      128.53640751        1.88724971
      117.30131      135.25032807        2.31709722
      117.40100      137.95458122        1.96755048
      117.50069      141.35978088        1.89184876
      117.60039      147.18873177        1.84783362
      117.70008      151.71499838        1.81774306
      117.79977      160.24572680        2.28990387
      117.89947      157.59669662        1.97397617
      117.99916      160.09947357        2.01349051
      118.09885      160.55877319        2.05421547
      118.19855      160.36211577        2.15022700
      118.29824      169.22052610        2.42219374
      118.39793      170.00541061        2.20431845
      118.49763      179.90678310        2.14052430
      118.59732      179.65151150        2.06514692
      118.69701      178.34896941        2.14343855
      118.79671      176.20469787        2.30028991
      118.89640      177.14290709        2.15045789
      118.99609      179.00908428        2.15958318
      119.09579      177.92226983        2.17803022
      119.19548      175.43101979        2.36292445
      119.29517      174.85114777        2.45078962
      119.39487      172.80708591        2.23955847
      119.49456      176.26903981        2.13177692
      119.59425      169.01379564        2.02672480
      119.69395      170.77218693        2.14944330
      119.79364      165.87754254        2.14055736
      119.89333      157.32392615        2.01694952
      119.99303      152.77158512        1.94025183
      120.09272      147.95068271        1.95258079
      120.19241      143.67264804        2.16245222
      120.29211      141.01256173        2.12029872
      120.39180      141.49394782        2.02634097
      120.49149      131.30523120        1.81483112
      120.59119      126.59835681        1.72934769
      120.69088      125.32818935        1.85220676
      120.79057      125.82927763        1.81609615
      120.89027      121.17190896        1.74938948
      120.98996      121.92821508        1.74140019
      121.08966      119.80093995        1.73893469
      121.18935      115.19116344        1.95422868
      121.28904      119.26932505        1.93838855
      121.38874      116.79667007        1.81376741
      121.48843      114.80825636        1.69835533
      121.58812      116.28299965        1.63025725
      121.68782      115.20139579        1.79756120
      121.78751      117.97426722        1.73356288
      121.88720      114.89222061        1.68871328
      121.98690      114.37881076        1.69753001
      122.08659      113.17036506        1.72228043
      122.18628      115.87933821        2.02191012
      122.28598      107.93721447        1.83455752
      122.38567      111.24649626        1.78395666
      122.48536      110.42510057        1.68121425
      122.58506      110.45448005        1.59250050
      122.68475      109.51093072        1.79680669
      122.78444      106.25599716        1.66636813
      122.88414      107.52348521        1.66212199
      122.98383      105.70700462        1.68168310
      123.08352      103.25577540        1.64771676
      123.18322      101.60750408        1.90624892
      123.28291      100.48974772        1.72286614
      123.38260      101.00184334        1.66745705
      123.48230       98.22825998        1.58474207
      123.58199       97.63400592        1.47669782
      123.68168       98.53541453        1.69287968
      123.78138       93.47012233        1.48728576
      123.88107       92.86667573        1.44816989
      123.98076       90.91387108        1.45926880
      124.08046       89.21280729        1.43023636
      124.18015       86.40867415        1.59302806
      124.27984       88.28037382        1.44271880
      124.37954       86.29260417        1.34588739
      124.47923       84.07082076        1.29680038
      124.57893       81.72884101        1.36211635
