        5.04651       59.94304919        2.64407776
        5.14621       60.04103987        2.55032633
        5.24590       59.59030310        2.50426090
        5.34559       58.97033803        2.28479083
        5.44529       52.39961130        2.34253486
        5.54498       60.33435099        2.11501399
        5.64467       56.31535681        2.02521182
        5.74437       50.80761219        1.73610065
        5.84406       55.04285661        1.82896327
        5.94375       55.21644240        1.82940078
        6.04345       51.20057603        1.71150187
        6.14314       54.45497043        1.61629253
        6.24283       52.24392774        1.63527242
        6.34253       54.62583974        1.59500523
        6.44222       53.26273305        1.65831667
        6.54191       51.43472578        1.54370686
        6.64161       53.30890293        1.48891619
        6.74130       56.72299156        1.54224258
        6.84099       54.37884283        1.49898246
        6.94069       52.91155800        1.50080859
        7.04038       52.53345397        1.38037767
        7.14007       53.60219308        1.39150949
        7.23977       55.52609455        1.39159405
        7.33946       53.31683198        1.38439477
        7.43915       52.72288937        1.35867009
        7.53885       50.61241869        1.30654067
        7.63854       54.07657408        1.29094765
        7.73823       55.21972278        1.35461636
        7.83793       52.87781501        1.28267372
        7.93762       52.28794584        1.33050190
        8.03732       54.53856036        1.21873478
        8.13701       53.61418470        1.20286889
        8.23670       55.02387253        1.23583593
        8.33640       53.50998940        1.21898633
        8.43609       52.01635749        1.25642165
        8.53578       56.67201434        1.22173335
        8.63548       51.10871882        1.14665868
        8.73517       53.68426132        1.15290135
        8.83486       56.69176863        1.18776593
        8.93456       53.31621065        1.14581025
        9.03425       55.08283984        1.13060485
        9.13394       54.97421081        1.13161163
        9.23364       55.24349029        1.15095378
        9.33333       56.75250766        1.19038200
        9.43302       55.66245480        1.17928817
        9.53272       52.61991408        1.10774789
        9.63241       56.76330798        1.18322704
        9.73210       53.70408068        1.14847044
        9.83180       55.83067519        1.22025278
        9.93149       55.01173386        1.20256530
       10.03118       56.01092802        1.16759964
       10.13088       55.09152580        1.13019311
       10.23057       55.30359156        1.18582696
       10.33026       57.07936023        1.24535398
       10.42996       53.33736840        1.18719043
       10.52965       54.52993556        1.16256925
       10.62934       55.57366718        1.17650549
       10.72904       57.18392354        1.21114702
       10.82873       54.85089108        1.18010901
       10.92842       55.67577101        1.20891354
       11.02812       58.11923451        1.17684834
       11.12781       57.10701821        1.20835656
       11.22750       55.45078728        1.20249792
       11.32720       56.69114261        1.24863104
       11.42689       55.95563993        1.19743483
       11.52658       59.11393584        1.21623120
       11.62628       57.75760802        1.21518388
       11.72597       58.95268940        1.25381988
       11.82567       58.83362748        1.28737872
       11.92536       58.50932219        1.20141489
       12.02505       59.28072208        1.21497214
       12.12475       59.14737530        1.21249518
       12.22444       65.95838157        1.35801818
       12.32413       66.08111587        1.37994347
       12.42383       73.81240479        1.38455052
       12.52352       80.95385261        1.44116555
       12.62321       89.28524321        1.55655583
       12.72291       98.75894206        1.59300450
       12.82260      114.96308047        1.86862523
       12.92229      120.27605798        1.73547994
       13.02199      147.48520033        1.90733360
       13.12168      172.23092850        2.09741665
       13.22137      211.44422914        2.40088367
       13.32107      242.57398533        2.65532011
       13.42076      273.69063742        2.71602883
       13.52045      310.79575530        2.93126375
       13.62015      327.59102036        2.91780659
       13.71984      331.51687026        3.06046198
       13.81953      317.11378580        3.04462880
       13.91923      283.96948222        2.70603375
       14.01892      227.51104797        2.35710906
       14.11861      178.43011128        2.17717267
       14.21831      141.76630530        1.94197319
       14.31800      116.91393195        1.85626361
       14.41769       89.12877822        1.56012178
       14.51739       73.63884347        1.38317716
       14.61708       63.57182265        1.28816314
       14.71677       57.40600988        1.24392194
       14.81647       55.13021168        1.27696053
       14.91616       54.98162891        1.17274506
       15.01585       55.04223629        1.19455480
       15.11555       51.70148314        1.17101838
       15.21524       51.59432796        1.20565839
       15.31493       49.96823515        1.21505011
       15.41463       50.50602546        1.18278058
       15.51432       50.83670145        1.14989169
       15.61402       50.71117960        1.17754791
       15.71371       49.68671517        1.15754485
       15.81340       47.80794516        1.18112175
       15.91310       49.48288677        1.16764393
       16.01279       50.39607723        1.12831280
       16.11248       50.94932893        1.16497727
       16.21218       49.94252120        1.18533088
       16.31187       49.74607963        1.18588184
       16.41156       52.62159799        1.19708457
       16.51126       49.66287869        1.18248450
       16.61095       48.97666585        1.13225335
       16.71064       51.49846789        1.19785077
       16.81034       52.75764147        1.21612930
       16.91003       54.60025969        1.20158246
       17.00972       58.65574297        1.19575446
       17.10942       57.35903451        1.24973007
       17.20911       63.10535112        1.32266288
       17.30880       64.98190815        1.35390286
       17.40850       71.47461537        1.41988887
       17.50819       75.29044054        1.41520639
       17.60788       77.03586049        1.47604053
       17.70758       75.28018982        1.46504443
       17.80727       76.50663371        1.49522944
       17.90696       72.07561656        1.35671351
       18.00666       68.83264057        1.34897636
       18.10635       66.09351266        1.28563667
       18.20604       62.98172952        1.37663902
       18.30574       57.78259354        1.25648841
       18.40543       55.95042844        1.20574363
       18.50512       55.38398730        1.23746259
       18.60482       54.80274383        1.21162177
       18.70451       53.84536966        1.26911811
       18.80420       53.53230964        1.18876293
       18.90390       51.90405794        1.15798255
       19.00359       51.17399186        1.11972509
       19.10328       47.13128680        1.13673867
       19.20298       50.83469717        1.21744772
       19.30267       50.20671612        1.16187018
       19.40237       48.17143524        1.12511566
       19.50206       48.70899847        1.15984289
       19.60175       46.51359523        1.12060797
       19.70145       47.78214300        1.19103034
       19.80114       47.41749440        1.12528779
       19.90083       46.87696392        1.08102411
       20.00053       48.45705490        1.11865625
       20.10022       49.40175586        1.13793482
       20.19991       50.40807166        1.22895083
       20.29961       50.22135505        1.16227121
       20.39930       51.82542471        1.21642271
       20.49899       53.97511728        1.21992015
       20.59869       53.54388260        1.23723372
       20.69838       53.82028845        1.28617742
       20.79807       52.23013128        1.20842976
       20.89777       52.93705888        1.18908688
       20.99746       58.08965746        1.25822560
       21.09715       57.92440792        1.32341866
       21.19685       61.54927510        1.35726197
       21.29654       59.28613169        1.29932861
       21.39623       60.80372646        1.31599260
       21.49593       55.45375566        1.23856883
       21.59562       54.86863729        1.26165853
       21.69531       52.43194296        1.28271184
       21.79501       51.20441545        1.15955840
       21.89470       51.79565421        1.14001524
       21.99439       46.83894389        1.12986188
       22.09409       48.01511343        1.14684194
       22.19378       48.03050741        1.21813145
       22.29347       47.40388025        1.12705015
       22.39317       46.38067527        1.14365929
       22.49286       46.28824334        1.14160220
       22.59255       47.23033111        1.16675872
       22.69225       46.97506178        1.22619366
       22.79194       46.48356868        1.09544099
       22.89163       45.63586936        1.06415288
       22.99133       47.22166921        1.11256448
       23.09102       45.95526392        1.13979603
       23.19072       47.18417321        1.15770954
       23.29041       47.45788270        1.14661731
       23.39010       49.30433394        1.18103048
       23.48980       49.69295728        1.18999680
       23.58949       47.82769636        1.18302752
       23.68918       46.33113348        1.22434672
       23.78888       46.26424115        1.09034668
       23.88857       46.34191666        1.10554471
       23.98826       46.67939657        1.13436099
       24.08796       45.62201782        1.09954877
       24.18765       45.07147231        1.17102145
       24.28734       46.38365722        1.13109254
       24.38704       46.77510367        1.15485531
       24.48673       45.71510683        1.13756964
       24.58642       46.39026889        1.18388425
       24.68612       46.69224174        1.18617447
       24.78581       44.99140075        1.07328739
       24.88550       45.83876696        1.08293796
       24.98520       46.69464295        1.13346557
       25.08489       48.11611228        1.17362118
       25.18458       47.56037855        1.19131122
       25.28428       49.15386951        1.16735265
       25.38397       49.49989697        1.16577808
       25.48366       50.12688722        1.18018204
       25.58336       53.43731019        1.27021619
       25.68305       60.29358862        1.32360088
       25.78274       68.81353239        1.33488963
       25.88244       80.54488388        1.48105013
       25.98213      104.87672120        1.70482127
       26.08182      132.32162959        1.96634853
       26.18152      157.89852772        2.20099164
       26.28121      190.43758861        2.28801049
       26.38090      203.37675479        2.38479358
       26.48060      197.12264077        2.41199045
       26.58029      179.68803678        2.40138686
       26.67998      158.06365273        2.12640822
       26.77968      131.18018970        1.91331118
       26.87937      100.10789504        1.64653130
       26.97907       82.97724346        1.48620451
       27.07876       73.22772458        1.50310146
       27.17845       70.93575211        1.41373699
       27.27815       76.84484227        1.43725156
       27.37784       83.21791224        1.55424725
       27.47753       82.58820565        1.52543094
       27.57723       88.68800682        1.65628132
       27.67692       88.57433127        1.61564472
       27.77661       81.85914336        1.48218526
       27.87631       73.24972133        1.37847635
       27.97600       66.60809752        1.34392260
       28.07569       60.14350485        1.35136218
       28.17539       52.37450600        1.20696078
       28.27508       52.30550148        1.20671087
       28.37477       51.32707095        1.22378279
       28.47447       53.12369564        1.23537121
       28.57416       56.67142316        1.37963313
       28.67385       54.65313378        1.20529095
       28.77355       54.35522465        1.18029213
       28.87324       57.10435992        1.24210534
       28.97293       59.86555591        1.27486839
       29.07263       61.79327557        1.41196214
       29.17232       58.68062788        1.25552954
       29.27201       60.20433506        1.29529612
       29.37171       55.94528641        1.28430275
       29.47140       53.43627926        1.24058637
       29.57109       50.38641926        1.27729559
       29.67079       49.79391978        1.15595920
       29.77048       49.53520020        1.15561709
       29.87017       48.07187770        1.11601835
       29.96987       46.28202224        1.14811335
       30.06956       49.33570122        1.22307175
       30.16925       49.49867472        1.15350428
       30.26895       51.17158359        1.17738436
       30.36864       50.72858100        1.19141517
       30.46833       52.55418880        1.22502847
       30.56803       55.73474700        1.33276284
       30.66772       57.12827021        1.25569423
       30.76742       59.94102293        1.26059729
       30.86711       64.16125608        1.33039134
       30.96680       65.80620023        1.35519449
       31.06650       64.41632382        1.40583852
       31.16619       63.66403283        1.31405473
       31.26588       61.08681902        1.27934258
       31.36558       58.15752241        1.26451457
       31.46527       58.61462365        1.32092596
       31.56496       60.66496129        1.36550521
       31.66466       66.22657498        1.33450332
       31.76435       75.10580446        1.42007561
       31.86404       80.91449528        1.45480384
       31.96374       86.28157598        1.53733318
       32.06343       86.23182145        1.59040981
       32.16312       86.97570591        1.50112743
       32.26282       80.87425951        1.48262991
       32.36251       74.32231031        1.47791642
       32.46220       65.97797089        1.41711894
       32.56190       62.66573257        1.40547663
       32.66159       58.55053834        1.28997740
       32.76128       54.29577232        1.21418191
       32.86098       54.50243886        1.23477188
       32.96067       53.08781239        1.23385019
       33.06036       51.30188747        1.23497431
       33.16006       53.08910208        1.18320658
       33.25975       53.05964315        1.22130550
       33.35944       55.05196549        1.25085291
       33.45914       56.19098598        1.31184692
       33.55883       61.08746512        1.37124571
       33.65852       61.75542569        1.28565891
       33.75822       66.20725232        1.32904123
       33.85791       75.96355999        1.42978431
       33.95760       81.96474249        1.52921565
       34.05730       90.80405659        1.59419988
       34.15699      100.72324334        1.65258738
       34.25668      113.92669079        1.75176224
       34.35638      136.97071146        1.97106193
       34.45607      181.97180645        2.39468460
       34.55577      219.89661651        2.50916392
       34.65546      293.32872199        2.78193725
       34.75515      380.61106771        3.23289230
       34.85485      441.04247042        3.45544905
       34.95454      471.12591278        3.68510259
       35.05423      447.45479489        3.71244984
       35.15393      393.98978747        3.26923779
       35.25362      303.18088171        2.90881759
       35.35331      217.20344047        2.52329286
       35.45301      157.99086012        2.24432097
       35.55270      116.63301910        1.87684074
       35.65239       94.36128521        1.63026433
       35.75209       83.05252230        1.51816772
       35.85178       76.28669859        1.45290219
       35.95147       72.26028915        1.44721451
       36.05117       67.61206340        1.37091092
       36.15086       61.91883937        1.26124182
       36.25055       59.56796191        1.29236382
       36.35025       57.61261017        1.29579422
       36.44994       54.86577440        1.28969027
       36.54963       53.39666604        1.22130322
       36.64933       51.73545266        1.18414997
       36.74902       53.57422974        1.21768146
       36.84871       48.87739016        1.15449952
       36.94841       52.83566202        1.29827373
       37.04810       53.35608470        1.15039539
       37.14779       52.46389995        1.16409201
       37.24749       52.20537782        1.19351156
       37.34718       49.19132961        1.18797399
       37.44687       51.58970466        1.30696835
       37.54657       49.83853999        1.17267882
       37.64626       47.87571055        1.14486865
       37.74595       48.25212234        1.13140467
       37.84565       48.41955208        1.19921058
       37.94534       48.54126062        1.22323137
       38.04503       49.55477101        1.11711032
       38.14473       48.89832318        1.12053537
       38.24442       50.68404055        1.16173508
       38.34412       51.86254598        1.22866825
       38.44381       50.14630937        1.30630319
       38.54350       50.33768438        1.16668157
       38.64320       51.71402947        1.17899661
       38.74289       50.45858506        1.17977715
       38.84258       56.58789165        1.25266972
       38.94228       58.41152501        1.33497305
       39.04197       63.72917075        1.25758290
       39.14166       65.75978192        1.32895848
       39.24136       71.22017307        1.37954515
       39.34105       72.89513774        1.44440860
       39.44074       73.30861539        1.57998838
       39.54044       70.95549177        1.38974741
       39.64013       70.57214141        1.38174456
       39.73982       65.84841454        1.33990005
       39.83952       61.52430202        1.28622774
       39.93921       59.38603262        1.33981504
       40.03890       57.60506540        1.20781877
       40.13860       54.30643854        1.17107908
       40.23829       54.28080901        1.21222271
       40.33798       54.69630405        1.25480441
       40.43768       55.74708459        1.32546692
       40.53737       57.63310042        1.25092363
       40.63706       59.02729855        1.29260721
       40.73676       59.39015316        1.29453120
       40.83645       62.82288934        1.34269320
       40.93614       61.46725744        1.35031087
       41.03584       67.89288446        1.33578641
       41.13553       76.70413900        1.42174658
       41.23522       89.11276229        1.57004687
       41.33492      107.44486686        1.80530026
       41.43461      122.50029068        1.98966704
       41.53430      142.11016684        2.00734378
       41.63400      169.38602826        2.24040339
       41.73369      188.21828905        2.31078446
       41.83338      197.79880092        2.43259416
       41.93308      200.62681779        2.42826238
       42.03277      203.54773155        2.23555792
       42.13247      215.24146582        2.41612044
       42.23216      257.82086922        2.65034708
       42.33185      325.80332064        3.20076778
       42.43155      421.22489451        3.59131713
       42.53124      519.63196089        3.86824317
       42.63093      608.26152564        4.20005581
       42.73063      643.14900262        4.34100577
       42.83032      629.57674569        4.37064639
       42.93001      558.02715533        3.95474271
       43.02971      437.40499255        3.30048270
       43.12940      310.00899265        2.82899344
       43.22909      205.38771238        2.41640388
       43.32879      149.02383441        2.16737191
       43.42848      109.51127573        1.81656701
       43.52817       86.51989729        1.54476077
       43.62787       73.33896628        1.41745903
       43.72756       68.62730434        1.40369663
       43.82725       64.16244169        1.41717161
       43.92695       60.80988529        1.25101042
       44.02664       57.81386144        1.21387903
       44.12633       57.83111539        1.25932996
       44.22603       56.76793048        1.29864011
       44.32572       58.39122842        1.38822801
       44.42541       57.51812719        1.31542689
       44.52511       58.14655551        1.28704759
       44.62480       57.29844944        1.29564880
       44.72449       60.23084491        1.28744332
       44.82419       60.70841278        1.45036583
       44.92388       63.65281989        1.23868115
       45.02357       71.50974955        1.32389920
       45.12327       79.61271128        1.43897906
       45.22296       92.79164853        1.59472971
       45.32265      110.53516655        1.92585095
       45.42235      131.45959501        1.91285951
       45.52204      165.03777565        2.12305490
       45.62174      215.99987495        2.47598766
       45.72143      261.30438081        2.72628694
       45.82112      297.10445122        3.18557263
       45.92082      318.66080910        2.80274428
       46.02051      304.99316742        2.79931928
       46.12020      268.50252033        2.63216050
       46.21990      215.01797688        2.47124095
       46.31959      176.89775032        2.41811615
       46.41928      132.00535425        1.92709042
       46.51898       96.77461152        1.65792585
       46.61867       75.64717048        1.45797965
       46.71836       68.80558289        1.42633785
       46.81806       59.91939703        1.38004225
       46.91775       55.78803525        1.16070446
       47.01744       57.43502377        1.20592994
       47.11714       58.30834075        1.24285110
       47.21683       59.76685967        1.29535815
       47.31652       65.88358275        1.48391540
       47.41622       75.77213864        1.49998964
       47.51591       87.99527828        1.61973988
       47.61560      105.11942992        1.75604924
       47.71530      127.65145984        1.95690904
       47.81499      154.85119189        2.21101143
       47.91468      182.24166273        2.09971748
       48.01438      214.80606757        2.28275677
       48.11407      218.80025026        2.39019769
       48.21376      213.93804858        2.46724776
       48.31346      189.57409677        2.40344895
       48.41315      167.62702381        2.10543094
       48.51284      131.73778810        1.92673841
       48.61254      100.42132093        1.67408850
       48.71223       80.34820376        1.52402456
       48.81192       69.21559151        1.41094596
       48.91162       59.40131999        1.17155550
       49.01131       54.51301384        1.16160442
       49.11100       54.60469037        1.20454201
       49.21070       52.56219794        1.24068822
       49.31039       52.07403938        1.27094066
       49.41009       51.06036577        1.18886053
       49.50978       50.50123533        1.20677555
       49.60947       49.15644086        1.19925837
       49.70917       50.43525372        1.25985744
       49.80886       47.79671922        1.19353858
       49.90855       49.38805354        1.10524974
       50.00825       50.25656756        1.13850941
       50.10794       53.20857125        1.19825460
       50.20763       50.84936910        1.22372885
       50.30733       53.60802993        1.31628062
       50.40702       51.65476623        1.21158421
       50.50671       54.32160769        1.24623204
       50.60641       53.83574080        1.24238236
       50.70610       57.60789489        1.32256877
       50.80579       56.28723495        1.29000932
       50.90549       59.26655474        1.19356119
       51.00518       57.21851970        1.18306980
       51.10487       55.95764635        1.20932648
       51.20457       58.57456982        1.31731781
       51.30426       56.33715925        1.28509235
       51.40395       58.11259117        1.25132173
       51.50365       58.84164620        1.27356001
       51.60334       57.64387828        1.28537154
       51.70303       59.07605056        1.38191472
       51.80273       59.15291890        1.26841701
       51.90242       61.26283632        1.20613407
       52.00211       63.75167171        1.23631657
       52.10181       63.57474863        1.27366733
       52.20150       62.99826526        1.39625298
       52.30119       63.46675506        1.35002314
       52.40089       59.57287587        1.28729687
       52.50058       62.00433563        1.33822938
       52.60027       58.50294106        1.31748797
       52.69997       59.30096525        1.45370370
       52.79966       58.34528378        1.21224510
       52.89935       58.30786556        1.16929493
       52.99905       63.76509311        1.24295099
       53.09874       73.38730094        1.37674845
       53.19844       85.90563638        1.70623809
       53.29813      102.10830440        1.65376591
       53.39782      121.63819248        1.86815436
       53.49752      142.07208275        2.02922474
       53.59721      163.54705407        2.17683421
       53.69690      167.88862618        2.42016883
       53.79660      177.67195682        2.08616782
       53.89629      171.59776062        2.02765887
       53.99598      156.65042190        1.98377769
       54.09568      135.88494646        1.92825120
       54.19537      117.90287023        1.95793237
       54.29506      109.02034086        1.72935229
       54.39476       91.98401980        1.60005248
       54.49445       88.81652175        1.57335200
       54.59414       82.63215760        1.54045259
       54.69384       81.76944611        1.63475566
       54.79353       80.14989700        1.38785736
       54.89322       80.63539841        1.38709322
       54.99292       72.22945382        1.35088029
       55.09261       69.75700887        1.38050332
       55.19230       66.52193147        1.44759932
       55.29200       66.62508894        1.34843153
       55.39169       61.35431112        1.33496403
       55.49138       58.72624638        1.30111908
       55.59108       56.06530490        1.31196224
       55.69077       56.79589028        1.35520956
       55.79046       52.38892590        1.13776241
       55.89016       53.63907624        1.14855743
       55.98985       55.01820796        1.17074236
       56.08954       55.84464342        1.21840313
       56.18924       62.08910741        1.38675748
       56.28893       66.73339396        1.31595979
       56.38862       74.90550739        1.44243965
       56.48832       80.60298067        1.52215259
       56.58801       98.99299319        1.73656678
       56.68770      103.45687690        1.83240407
       56.78740      113.76939628        1.64505695
       56.88709      113.26393381        1.65775673
       56.98679      111.53501985        1.64652542
       57.08648      104.93434478        1.69276826
       57.18617       97.11488348        1.68590866
       57.28587       83.89055781        1.46349460
       57.38556       73.80780484        1.46090250
       57.48525       67.21543732        1.42067707
       57.58495       61.75145530        1.39270129
       57.68464       56.39567755        1.34231714
       57.78433       55.00964373        1.15969210
       57.88403       52.97868295        1.15126885
       57.98372       53.26537324        1.17277348
       58.08341       50.37132631        1.23298592
       58.18311       53.48698075        1.29982775
       58.28280       51.01194788        1.19552775
       58.38249       51.09470704        1.25023056
       58.48219       51.32191834        1.28007427
       58.58188       51.87273092        1.30102465
       58.68157       50.74573870        1.26091826
       58.78127       52.53423479        1.12226671
       58.88096       51.55690160        1.09533686
       58.98065       56.35093844        1.18893320
       59.08035       56.47497799        1.27005207
       59.18004       58.30228446        1.30910574
       59.27973       61.19461084        1.26550971
       59.37943       60.89042619        1.30394428
       59.47912       67.81416921        1.43281076
       59.57881       70.51153559        1.53065715
       59.67851       76.10211109        1.48277150
       59.77820       82.66342856        1.42087352
       59.87789       89.68714000        1.47499065
       59.97759       97.73342379        1.61100529
       60.07728      103.76148177        1.79785743
       60.17697      103.73363196        1.71240881
       60.27667      106.42120071        1.68643877
       60.37636      105.49725555        1.71161720
       60.47605      100.95952179        1.74654462
       60.57575       96.03061453        1.86655634
       60.67544       93.15656352        1.57935968
       60.77514       83.19841667        1.41855077
       60.87483       77.76426427        1.34467542
       60.97452       72.47142196        1.36736490
       61.07422       67.05558383        1.47731706
       61.17391       64.93288309        1.25919980
       61.27360       66.17406198        1.31637482
       61.37330       67.71372908        1.38106047
       61.47299       67.07114910        1.43486586
       61.57268       72.61986625        1.69818119
       61.67238       70.06189599        1.35933868
       61.77207       68.40443533        1.30806632
       61.87176       69.57355760        1.30455275
       61.97146       71.05797599        1.36884845
       62.07115       67.04941301        1.50573787
       62.17084       66.94105971        1.31814164
       62.27054       67.05049484        1.37553559
       62.37023       63.85284760        1.39565391
       62.46992       60.61858253        1.40629599
       62.56962       60.94452711        1.58373934
       62.66931       58.26675254        1.24738587
       62.76900       59.04842067        1.22394572
       62.86870       63.23919054        1.23912960
       62.96839       68.19937607        1.32801696
       63.06808       78.27493083        1.58376616
       63.16778       83.76756927        1.45455674
       63.26747      101.93117453        1.66135478
       63.36716      118.11053889        1.85684457
       63.46686      137.13180865        2.06204881
       63.56655      152.66784344        2.31255906
       63.66624      175.31192268        2.10779795
       63.76594      199.77357923        2.18724803
       63.86563      209.47339881        2.23328317
       63.96532      204.57028400        2.30880684
       64.06502      195.59959724        2.41776098
       64.16471      180.23541894        2.14564138
       64.26440      154.92263108        2.06925422
       64.36410      130.88670458        1.93907206
       64.46379      107.82654018        1.86012325
       64.56349       93.35948324        1.76102880
       64.66318       80.46573090        1.43056720
       64.76287       69.66319584        1.31437914
       64.86257       62.35568617        1.24146216
       64.96226       58.70629448        1.26168232
       65.06195       57.43923642        1.34945398
       65.16165       54.02113082        1.18041627
       65.26134       52.70357974        1.19317788
       65.36103       53.81825547        1.25820346
       65.46073       53.51673415        1.29588342
       65.56042       55.81888869        1.38238756
       65.66011       55.85278259        1.20575095
       65.75981       57.44147675        1.21061326
       65.85950       58.07906972        1.20956664
       65.95919       59.30779640        1.27952952
       66.05889       63.59245717        1.37063996
       66.15858       67.80968688        1.34604829
       66.25827       77.33917050        1.48705591
       66.35797       92.81913842        1.69781466
       66.45766      108.26870830        1.94910973
       66.55735      121.76304769        2.06708340
       66.65705      136.95946444        1.94528505
       66.75674      150.76428392        1.98938668
       66.85643      165.74634978        2.06286184
       66.95613      171.17515308        2.17982278
       67.05582      177.25028034        2.23513896
       67.15551      167.58862250        2.06751301
       67.25521      160.46247314        2.12312084
       67.35490      138.59975770        2.07602371
       67.45459      123.69245617        2.06773975
       67.55429      110.40186821        1.87125566
       67.65398       94.60464245        1.55223245
       67.75367       78.92282368        1.40566813
       67.85337       72.68887221        1.36546861
       67.95306       74.64385542        1.47977721
       68.05275       78.32208854        1.43548125
       68.15245       88.59298990        1.51403634
       68.25214       94.64546130        1.66117672
       68.35184      103.41118441        1.81001799
       68.45153      112.06536751        2.07471276
       68.55122      120.49603129        1.85367149
       68.65092      126.81079832        1.77266084
       68.75061      129.90681931        1.81272323
       68.85030      132.81504371        1.86831329
       68.95000      127.80711919        2.07755480
       69.04969      118.14687465        1.68643376
       69.14938      104.82562184        1.63287423
       69.24908       91.06914414        1.62480638
       69.34877       78.55311664        1.56027030
       69.44846       72.20666540        1.73495073
       69.54816       63.83631715        1.27164073
       69.64785       56.66123194        1.18099355
       69.74754       56.09694664        1.18696222
       69.84724       53.51396919        1.18947430
       69.94693       51.17470664        1.31263796
       70.04662       47.51409606        1.03998867
       70.14632       47.96482628        1.08658228
       70.24601       46.14409640        1.14107070
       70.34570       47.23211358        1.22167101
       70.44540       47.49454660        1.44342383
       70.54509       47.64421319        1.13160160
       70.64478       48.25559709        1.13724376
       70.74448       49.33303596        1.16813959
       70.84417       49.58062462        1.21520783
       70.94386       49.98621818        1.33942165
       71.04356       52.35523751        1.13442286
       71.14325       51.60550452        1.17036405
       71.24294       54.30458150        1.26332374
       71.34264       54.39291169        1.34065069
       71.44233       55.90882007        1.51680572
       71.54202       58.28538131        1.26094748
       71.64172       55.37425721        1.19543678
       71.74141       53.43692339        1.15295024
       71.84110       50.67717383        1.16214498
       71.94080       55.44897355        1.32487779
       72.04049       51.54668850        1.08105104
       72.14019       52.31173160        1.13471007
       72.23988       51.49903176        1.17796761
       72.33957       53.19340942        1.33734728
       72.43927       52.69757032        1.46524871
       72.53896       53.08862714        1.17918009
       72.63865       52.75303864        1.14893276
       72.73835       54.32406932        1.14033601
       72.83804       59.61539472        1.26166887
       72.93773       61.35745740        1.35969254
       73.03743       62.95703974        1.19557913
       73.13712       66.42373214        1.29523404
       73.23681       69.19601059        1.38900164
       73.33651       70.97053863        1.54796142
       73.43620       69.90818891        1.66400365
       73.53589       70.25323325        1.34565895
       73.63559       68.08819898        1.30385990
       73.73528       69.06004881        1.30721044
       73.83497       67.76939408        1.37278502
       73.93467       60.42537667        1.36462402
       74.03436       62.79772029        1.23126977
       74.13405       58.75215767        1.24140654
       74.23375       58.86293714        1.29432674
       74.33344       56.31988752        1.39363239
       74.43313       53.88211056        1.41435400
       74.53283       54.37803452        1.20722878
       74.63252       55.32606896        1.20892057
       74.73221       55.56823455        1.20564336
       74.83191       58.65468377        1.31410798
       74.93160       63.44984926        1.38237971
       75.03129       66.19656084        1.25538212
       75.13099       75.24112556        1.38670012
       75.23068       84.40696827        1.53241126
       75.33037       92.81939726        1.76680082
       75.43007      108.39479164        1.93777498
       75.52976      125.20374558        1.80983439
       75.62945      140.98929476        1.91973245
       75.72915      154.76270925        2.00413185
       75.82884      163.26914555        2.21679029
       75.92854      168.50816119        2.11440634
       76.02823      175.05103566        2.02151336
       76.12792      176.29141449        2.12038183
       76.22762      169.14925984        2.19075722
       76.32731      160.10191316        2.40636220
       76.42700      153.79930873        2.22553516
       76.52670      139.21910564        1.95245173
       76.62639      118.69583005        1.77880618
       76.72608      105.28014884        1.64678487
       76.82578       96.40238576        1.81528079
       76.92547       95.10974609        1.44418306
       77.02516      100.86212930        1.54174895
       77.12486      107.33505121        1.67110664
       77.22455      120.91201602        1.88939723
       77.32424      132.28394722        2.42878281
       77.42394      142.18772005        2.01124958
       77.52363      149.64955516        1.99435316
       77.62332      163.67330232        2.07711889
       77.72302      169.07026965        2.11619010
       77.82271      179.19445552        2.55583337
       77.92240      177.83483539        1.94955412
       78.02210      174.48359923        2.08348616
       78.12179      166.77155382        2.17498174
       78.22148      158.57675521        2.24216587
       78.32118      145.01338711        2.48685607
       78.42087      127.99989943        1.83779203
       78.52056      108.30949090        1.74466262
       78.62026       96.53890853        1.63362797
       78.71995       80.33762043        1.49449217
       78.81964       72.31269711        1.58339414
       78.91934       68.28344779        1.19213550
       79.01903       61.74699233        1.24264966
       79.11872       58.77394446        1.26163870
       79.21842       56.95597695        1.32484786
       79.31811       56.10427801        1.48110621
       79.41780       56.23183895        1.20285523
       79.51750       56.87080098        1.22918482
       79.61719       58.69593322        1.25250799
       79.71689       59.43055771        1.30854581
       79.81658       61.82734387        1.41493156
       79.91627       60.67444302        1.18808507
       80.01597       63.04089072        1.24486856
       80.11566       63.75334981        1.30870519
       80.21535       64.01837449        1.40186153
       80.31505       63.89003472        1.66479755
       80.41474       67.35791475        1.31367568
       80.51443       67.97113201        1.31388890
       80.61413       70.19400882        1.37957944
       80.71382       69.77803484        1.42284990
       80.81351       71.59551469        1.61958045
       80.91321       73.99165338        1.21417389
       81.01290       82.16697491        1.38146354
       81.11259       95.31048082        1.60633716
       81.21229      107.83881276        1.84853403
       81.31198      122.13570920        2.19508665
       81.41167      136.28585153        1.81587150
       81.51137      168.98464404        2.08178376
       81.61106      191.66491098        2.31618268
       81.71075      214.97628562        2.54022798
       81.81045      233.02880379        2.80308063
       81.91014      264.88770072        2.29986052
       82.00983      295.00214058        2.59621072
       82.10953      321.24742956        3.03298760
       82.20922      344.63833720        3.49615113
       82.30891      359.98771569        3.74840634
       82.40861      374.61352638        3.11097996
       82.50830      368.88337397        3.07850843
       82.60799      367.59169281        3.31025373
       82.70769      354.39768424        3.53561026
       82.80738      348.48365933        3.34918343
       82.90707      333.09287480        2.65765819
       83.00677      306.61657155        2.71477929
       83.10646      274.12820872        3.01750306
       83.20615      252.34686683        3.22072645
       83.30585      234.37828798        2.93928253
       83.40554      203.84010597        2.27719569
       83.50524      170.55836009        2.03084293
       83.60493      136.83980296        2.00225736
       83.70462      120.67058498        2.11955528
       83.80432      106.66405315        1.74107152
       83.90401       87.81183636        1.32470232
       84.00370       78.26068790        1.30428469
       84.10340       69.73165693        1.47104487
       84.20309       66.47724790        1.74370391
       84.30278       66.57181525        1.41923334
       84.40248       64.32732012        1.23124607
       84.50217       62.92945858        1.19468153
       84.60186       61.17412883        1.33184250
       84.70156       61.44506547        1.74670671
       84.80125       64.90717506        1.25003094
       84.90094       63.32082877        1.10905640
       85.00064       64.21964636        1.15077670
       85.10033       63.50900794        1.35432566
       85.20002       60.66749027        2.27002090
       85.29972       62.55190052        1.21598557
       85.39941       66.21157494        1.27566853
       85.49910       65.59468144        1.23473505
       85.59880       66.43958490        1.39736994
       85.69849       68.06609640        2.53943122
       85.79818       65.34032092        1.17292172
       85.89788       64.69537615        1.13920677
       85.99757       64.80250135        1.17151092
       86.09726       66.17518842        1.35930445
       86.19696       64.00555604        2.56740018
       86.29665       67.65066509        1.24924292
       86.39634       67.36862460        1.26825890
       86.49604       63.55705450        1.21306695
       86.59573       62.21312296        1.27870789
       86.69542       61.44430478        2.65687658
       86.79512       60.74874160        1.09660680
       86.89481       58.55409839        1.06136315
       86.99451       55.32762602        1.06928752
       87.09420       55.40026131        1.19333184
       87.19389       54.26457206        2.79750503
       87.29359       56.14290333        1.15328474
       87.39328       52.07740348        1.12558957
       87.49297       49.60803124        1.06637746
       87.59267       48.39188871        1.07389016
       87.69236       49.44988987        3.24845258
       87.79205       51.57096829        1.03348442
       87.89175       50.07960515        1.01017913
       87.99144       50.38775757        1.05586566
       88.09113       50.16534983        1.11977012
       88.19083       51.92208690        6.02875414
       88.29052       50.35213009        1.12892949
       88.39021       50.72111868        1.14062567
       88.48991       50.69910845        1.09443958
       88.58960       50.03631111        1.05289487
       88.68929       50.45720775        8.19078111
       88.78899       51.17706056        1.02785146
       88.88868       48.82326638        0.98192862
       88.98837       49.93552230        1.03290466
       89.08807       48.22710387        1.03965971
       89.18776       63.05121865        9.67741032
       89.28745       49.07376668        1.06556880
       89.38715       51.86218906        1.10678392
       89.48684       51.95376972        1.08406135
       89.58653       53.74348738        1.08024166
       89.68623       66.24856844        9.72716758
       89.78592       59.56745961        1.10528184
       89.88561       61.60532217        1.10203919
       89.98531       69.10449668        1.19713683
       90.08500       73.10816241        1.27722483
       90.18469       83.48221930       11.38703675
       90.28439       81.49433911        1.37760371
       90.38408       89.55792143        1.46877457
       90.48377       98.12721497        1.50898552
       90.58347      101.71677809        1.51233945
       90.68316       93.45941834       11.28879194
       90.78286      103.21071661        1.45831008
       90.88255      104.22580896        1.42599042
       90.98224      106.49428087        1.49145675
       91.08194      104.10241051        1.52286381
       91.18163      109.67907557       12.47567556
       91.28132      102.92760450        1.55899940
       91.38102       97.92986558        1.56076279
       91.48071       94.22308486        1.49318013
       91.58040       84.05681890        1.36348223
       91.68010       76.74253295        9.85366532
       91.77979       77.36476608        1.25542012
       91.87948       73.01362806        1.20059290
       91.97918       65.49511030        1.18046273
       92.07887       62.25034690        1.19868662
       92.17856       65.56540982        9.35470435
       92.27826       59.98358079        1.21515471
       92.37795       58.99460580        1.23364071
       92.47764       65.76082911        1.23672475
       92.57734       68.54455924        1.22500001
       92.67703       91.34911445        9.18708551
       92.77672       76.52769902        1.24786051
       92.87642       82.03786377        1.26757594
       92.97611       93.04193835        1.41012237
       93.07580       99.05738852        1.66095796
       93.17550       99.10090565        3.12394670
       93.27519      101.65094243        1.55099498
       93.37488      106.68116516        1.54480210
       93.47458      105.30095044        1.55157571
       93.57427      109.11373926        1.82624530
       93.67396      104.53513849        2.41529196
       93.77366      114.35282794        1.56545310
       93.87335      110.26728372        1.46814914
       93.97304      105.29299333        1.49483234
       94.07274       98.83915894        1.87989462
       94.17243       93.35357882        2.08422340
       94.27212       90.70043966        1.53000259
       94.37182       86.24293706        1.45380878
       94.47151       75.99016455        1.30643335
       94.57121       72.72924052        1.68659139
       94.67090       70.94119462        1.68491566
       94.77059       68.70234185        1.28887107
       94.87029       66.03568788        1.14894368
       94.96998       60.14009791        1.11012178
       95.06967       58.34851879        1.26045061
       95.16937       58.60141790        1.72918747
       95.26906       60.25095752        1.35459216
       95.36875       60.44033841        1.23109438
       95.46845       60.80682286        1.18673422
       95.56814       56.02559284        1.31056184
       95.66783       61.39692926        1.54161209
       95.76753       59.60264258        1.25510258
       95.86722       56.13565903        1.03597130
       95.96691       55.68654286        1.07023964
       96.06661       53.28793716        1.34103451
       96.16630       55.06911046        1.45387156
       96.26599       49.69031831        1.24003416
       96.36569       53.33975450        1.15293973
       96.46538       51.38690861        1.09205534
       96.56507       48.40725712        1.30808273
       96.66477       48.62306013        1.27748080
       96.76446       48.90995683        1.14495485
       96.86415       49.35230509        0.99624341
       96.96385       47.76897012        1.01226711
       97.06354       51.46711284        1.42097355
       97.16323       46.86527630        1.29630204
       97.26293       50.42431699        1.26343114
       97.36262       50.65916220        1.17270848
       97.46231       47.41909713        1.04368101
       97.56201       51.15185072        1.37926829
       97.66170       48.93556120        1.21161134
       97.76139       51.02653646        1.12408781
       97.86109       52.21772769        1.02829423
       97.96078       54.04866037        1.06908815
       98.06047       56.63854264        1.52024276
       98.16017       56.09777815        1.34494690
       98.25986       52.73824456        1.24545525
       98.35956       55.18373888        1.20287769
       98.45925       56.18575842        1.13294889
       98.55894       56.67087331        1.48427418
       98.65864       60.23044208        1.31307645
       98.75833       59.85840661        1.22308139
       98.85802       66.40853681        1.20314891
       98.95772       67.82216840        1.20783083
       99.05741       66.88456375        1.66507948
       99.15710       70.28772383        1.46811640
       99.25680       76.14910949        1.48074524
       99.35649       80.15251474        1.44709536
       99.45618       84.12748449        1.38178796
       99.55588       84.65162892        1.85209830
       99.65557       88.20505529        1.55989268
       99.75526       86.39009970        1.44682444
       99.85496       88.81245208        1.39634610
       99.95465       89.32335338        1.37290598
      100.05434       94.20030166        2.00883943
      100.15404       93.88162443        1.68914891
      100.25373       90.96032383        1.64258060
      100.35342       95.68383928        1.67838314
      100.45312       88.28397618        1.47073254
      100.55281       85.99473736        1.90631161
      100.65250       81.38543949        1.51055956
      100.75220       82.54724613        1.40921412
      100.85189       76.35471193        1.29473565
      100.95158       75.63621801        1.25416839
      101.05128       70.53603018        1.72642228
      101.15097       73.13922541        1.45307350
      101.25066       72.69528532        1.43126745
      101.35036       73.40781754        1.45076919
      101.45005       74.11687304        1.37085782
      101.54974       76.45398979        1.73430316
      101.64944       73.47085361        1.38695026
      101.74913       79.11667670        1.35635644
      101.84882       86.50434584        1.38092956
      101.94852       84.66185314        1.43895660
      102.04821       87.34629787        1.76060756
      102.14791       92.16506555        1.63016739
      102.24760       91.18632834        1.60774015
      102.34729       89.05501911        1.58223777
      102.44699       91.50882375        1.63191395
      102.54668       92.35005188        1.72030362
      102.64637       94.82587944        1.55703615
      102.74607       96.49055514        1.49591798
      102.84576       96.74833511        1.46948481
      102.94545       97.56800132        1.68079304
      103.04515       94.80882598        1.75382211
      103.14484       92.88400051        1.62177725
      103.24453       89.24087425        1.56492936
      103.34423       89.96899386        1.55862085
      103.44392       86.93492749        1.65945462
      103.54361       88.51774302        1.62677206
      103.64331       85.62814522        1.45627793
      103.74300       82.72347088        1.36519051
      103.84269       81.63278978        1.33263399
      103.94239       80.48794910        1.59011943
      104.04208       77.07451281        1.50518712
      104.14177       79.44032650        1.48684129
      104.24147       79.80700380        1.48952998
      104.34116       81.55012347        1.51514970
      104.44085       78.70705090        1.69041087
      104.54055       79.79186552        1.54105192
      104.64024       82.26248817        1.47096316
      104.73993       78.49549464        1.37099021
      104.83963       74.85664919        1.28971820
      104.93932       71.86741619        1.53182252
      105.03901       70.16454000        1.42606874
      105.13871       69.09434380        1.36256783
      105.23840       65.87824634        1.32956453
      105.33809       66.02048546        1.33886284
      105.43779       64.82410055        1.54357694
      105.53748       62.23140610        1.35617655
      105.63717       59.56761058        1.21608509
      105.73687       56.40027241        1.12601466
      105.83656       54.76421772        1.08112097
      105.93626       53.34193336        1.35207424
      106.03595       53.90853105        1.23193702
      106.13564       52.32552981        1.17301018
      106.23534       52.70857131        1.19180925
      106.33503       48.90217735        1.15941132
      106.43472       48.47754981        1.36470465
      106.53442       49.82357057        1.20345011
      106.63411       49.24511645        1.08682868
      106.73380       50.00133852        1.04380101
      106.83350       50.05445255        1.02876530
      106.93319       49.36564016        1.32436677
      107.03288       50.73222005        1.18995962
      107.13258       51.29341334        1.16141447
      107.23227       50.25449364        1.16623396
      107.33196       51.56584390        1.17816370
      107.43166       50.81770845        1.40527096
      107.53135       53.99662363        1.24995348
      107.63104       56.87789958        1.16824943
      107.73074       58.08743829        1.13273413
      107.83043       61.76334806        1.15340974
      107.93012       61.96497568        1.52830779
      108.02982       65.08915109        1.37112278
      108.12951       68.14194893        1.33425134
      108.22920       69.25027437        1.32354241
      108.32890       65.30786086        1.27288552
      108.42859       71.59257691        1.69180832
      108.52828       70.33008528        1.42230099
      108.62798       72.79964752        1.31224121
      108.72767       72.93697513        1.26072725
      108.82736       73.64924889        1.29481457
      108.92706       74.34281101        1.64761667
      109.02675       74.74193883        1.44527265
      109.12644       72.95401646        1.39354461
      109.22614       74.21622730        1.40671642
      109.32583       72.84224237        1.51855466
      109.42552       76.76284282        1.64455894
      109.52522       71.98097780        1.43651805
      109.62491       70.77320602        1.35480198
      109.72461       68.08767654        1.27033558
      109.82430       63.93305790        1.14971911
      109.92399       61.85189140        1.47020958
      110.02369       58.76396099        1.25478773
      110.12338       61.25301493        1.27285047
      110.22307       60.44723602        1.25495212
      110.32277       57.53009619        1.25007700
      110.42246       56.62606147        1.50791338
      110.52215       52.99282060        1.23533973
      110.62185       50.39715508        1.13528053
      110.72154       52.13965695        1.07738320
      110.82123       53.62162617        1.12844157
      110.92093       54.01892863        1.32101638
      111.02062       51.78063860        1.19478066
      111.12031       54.13910141        1.23091102
      111.22001       54.46300672        1.21147359
      111.31970       55.11353373        1.32264266
      111.41939       53.90757646        1.35351468
      111.51909       57.18688596        1.26509910
      111.61878       55.57713867        1.17478605
      111.71847       59.19634886        1.12817452
      111.81817       63.52020890        1.26858825
      111.91786       65.65644776        1.35739703
      112.01755       67.28073686        1.34179209
      112.11725       70.88205600        1.38784130
      112.21694       71.56502215        1.38828200
      112.31663       76.02947592        1.57706038
      112.41633       78.68523291        1.57625974
      112.51602       76.62754850        1.43233156
      112.61571       79.97966658        1.39606397
      112.71541       84.38259952        1.35157052
      112.81510       85.34442107        1.52414253
      112.91479       91.46147932        1.60759359
      113.01449       90.09671820        1.56237397
      113.11418       89.23919515        1.54967741
      113.21387       89.22062326        1.54246624
      113.31357       91.22557272        1.73229012
      113.41326       93.28697545        1.66489375
      113.51296       93.86345968        1.57094614
      113.61265       92.99893218        1.50876302
      113.71234       92.19804067        1.43486997
      113.81204       93.14344057        1.65230145
      113.91173       92.31965817        1.59396950
      114.01142       90.56346827        1.56273783
      114.11112       87.59529366        1.53594072
      114.21081       88.31515427        1.55343330
      114.31050       87.87364821        1.75721873
      114.41020       81.17026507        1.56023821
      114.50989       80.92394021        1.45840800
      114.60958       79.90007744        1.40231717
      114.70928       75.50994364        1.31462075
      114.80897       73.01438581        1.46604828
      114.90866       74.19112593        1.39393591
      115.00836       71.04378013        1.35752306
      115.10805       69.15019127        1.34651473
      115.20774       70.54851032        1.38071052
      115.30744       70.10626410        1.58030701
      115.40713       71.48824195        1.44548716
      115.50682       69.21135895        1.34263643
      115.60652       72.90390528        1.32823696
      115.70621       72.49198705        1.27290152
      115.80590       73.83969115        1.49875350
      115.90560       71.83355444        1.33974538
      116.00529       75.30669773        1.38722583
      116.10498       78.72832330        1.43338290
      116.20468       83.51064296        1.51042388
      116.30437       86.61398405        1.83386674
      116.40406       93.12191349        1.65651703
      116.50376       96.00966475        1.58964718
      116.60345      103.24793039        1.58281732
      116.70314      112.39466706        1.60185400
      116.80284      117.79801751        1.94889271
      116.90253      130.22966811        1.84411565
      117.00222      133.25405029        1.85084703
      117.10192      143.94348129        1.97592834
      117.20161      149.24811168        2.03687803
      117.30131      149.89511462        2.44270433
      117.40100      156.81852895        2.10098223
      117.50069      164.79781784        2.04613449
      117.60039      176.04449540        2.02466622
      117.70008      175.89922736        1.96063126
      117.79977      185.31712608        2.46683719
      117.89947      184.74444298        2.14113603
      117.99916      189.19617698        2.19295818
      118.09885      190.64865162        2.24274739
      118.19855      194.04838387        2.37015803
      118.29824      196.27917250        2.61341090
      118.39793      199.56632049        2.39283398
      118.49763      203.38198199        2.27974453
      118.59732      199.93568986        2.18205686
      118.69701      200.89091020        2.27863844
      118.79671      196.50180979        2.43300418
      118.89640      185.86203928        2.20533804
      118.99609      188.22825525        2.21713972
      119.09579      179.93001936        2.19234970
      119.19548      171.20260601        2.33596768
      119.29517      173.21722806        2.44130252
      119.39487      163.95808565        2.18269560
      119.49456      157.83559463        2.01769801
      119.59425      151.07016384        1.91659557
      119.69395      144.88925858        1.97980590
      119.79364      138.77934684        1.95778121
      119.89333      133.41883492        1.85747640
      119.99303      128.94363889        1.78260466
      120.09272      130.43692499        1.83385464
      120.19241      126.78034265        2.03193124
      120.29211      122.83534214        1.97940157
      120.39180      125.87867593        1.91188891
      120.49149      122.76438894        1.75582778
      120.59119      119.18801023        1.67900632
      120.69088      116.62780086        1.78778101
      120.79057      118.07496270        1.76031119
      120.89027      117.71961667        1.72559130
      120.98996      114.58559602        1.68919728
      121.08966      119.14181302        1.73562421
      121.18935      115.85516798        1.96161676
      121.28904      118.81910381        1.93639172
      121.38874      113.98553861        1.79320140
      121.48843      116.92144055        1.71554358
      121.58812      120.17242084        1.65897577
      121.68782      120.29786839        1.83883073
      121.78751      120.72237731        1.75534333
      121.88720      120.98416552        1.73479425
      121.98690      121.91033372        1.75452640
      122.08659      121.46377994        1.78635384
      122.18628      119.81049585        2.05800551
      122.28598      120.08275275        1.93754287
      122.38567      114.67758617        1.81306429
      122.48536      117.44132173        1.73574896
      122.58506      115.64464882        1.63121133
      122.68475      113.86975657        1.83410320
      122.78444      111.79392401        1.71107204
      122.88414      108.24668055        1.66920735
      122.98383      107.51254817        1.69757950
      123.08352      101.57347681        1.63557647
      123.18322      100.24583621        1.89500395
      123.28291       98.83262840        1.71000191
      123.38260       98.78194132        1.65034970
      123.48230       93.27594538        1.54536433
      123.58199       94.26451547        1.45209486
      123.68168       91.12675179        1.62900036
      123.78138       93.12111227        1.48579171
      123.88107       87.72729122        1.40850984
      123.98076       86.00525018        1.42032986
      124.08046       86.08096723        1.40598725
      124.18015       86.08477219        1.59141824
      124.27984       86.51556661        1.42939141
      124.37954       84.98115657        1.33673289
      124.47923       77.67871301        1.24734206
      124.57893       72.36007978        1.28237436
