        5.04651       54.75414096        2.52440760
        5.14621       54.84507919        2.43493048
        5.24590       51.77226691        2.33155873
        5.34559       53.78559477        2.17976083
        5.44529       52.99434621        2.35380864
        5.54498       55.93800717        2.03442988
        5.64467       50.76379403        1.92076661
        5.74437       48.98416708        1.70308264
        5.84406       52.66332662        1.78730066
        5.94375       49.67238629        1.73329613
        6.04345       47.47524828        1.64642466
        6.14314       51.74037537        1.57398222
        6.24283       49.97917175        1.59792861
        6.34253       46.41009291        1.46848328
        6.44222       49.68632764        1.60009149
        6.54191       48.38565376        1.49580010
        6.64161       48.25827703        1.41515619
        6.74130       47.28353638        1.40640113
        6.84099       49.48742014        1.42849766
        6.94069       47.95857234        1.42735737
        7.04038       49.04311603        1.33241924
        7.14007       47.88991609        1.31387761
        7.23977       49.80755752        1.31658702
        7.33946       47.03984896        1.29894296
        7.43915       48.95962162        1.30798026
        7.53885       48.62213975        1.27939961
        7.63854       46.34561246        1.19375579
        7.73823       46.14044432        1.23679194
        7.83793       48.04181184        1.22135099
        7.93762       47.80877510        1.27094076
        8.03732       47.79416985        1.13963837
        8.13701       47.44145304        1.13028606
        8.23670       47.95571193        1.15245165
        8.33640       47.52092486        1.14751294
        8.43609       47.35949183        1.19763100
        8.53578       44.42630387        1.08031496
        8.63548       46.31831360        1.09047329
        8.73517       47.58224694        1.08423433
        8.83486       47.94589094        1.09103395
        8.93456       46.45336227        1.06834623
        9.03425       47.30515307        1.04655814
        9.13394       47.08573964        1.04608592
        9.23364       47.91476396        1.07069390
        9.33333       45.81093484        1.06816056
        9.43302       45.57396527        1.06578184
        9.53272       46.05325910        1.03519207
        9.63241       48.81567978        1.09601835
        9.73210       46.74272430        1.07026686
        9.83180       46.42251560        1.11137149
        9.93149       47.31934675        1.11405884
       10.03118       47.91516249        1.07868757
       10.13088       46.59151422        1.03814754
       10.23057       47.79793472        1.10118386
       10.33026       45.47123845        1.11011921
       10.42996       48.24704612        1.12794375
       10.52965       48.46031356        1.09478036
       10.62934       48.08197225        1.09310381
       10.72904       48.17950204        1.11039837
       10.82873       49.54162871        1.12036519
       10.92842       47.87802722        1.11978956
       11.02812       46.49384169        1.05125000
       11.12781       49.28186405        1.12124294
       11.22750       50.44484186        1.14574428
       11.32720       50.49833921        1.17718794
       11.42689       53.14789737        1.16588429
       11.52658       51.89195905        1.13824650
       11.62628       51.91721674        1.15087793
       11.72597       55.31683325        1.21333823
       11.82567       57.51465977        1.27170996
       11.92536       59.91884017        1.21481217
       12.02505       68.45004369        1.30485399
       12.12475       75.47613182        1.36927867
       12.22444       83.24265887        1.52522156
       12.32413       94.52649587        1.65066488
       12.42383      103.29709840        1.63818713
       12.52352      122.53749763        1.77414447
       12.62321      139.98523922        1.95080436
       12.72291      161.21867552        2.03803845
       12.82260      187.43171893        2.38996424
       12.92229      214.72478379        2.32450275
       13.02199      240.74125757        2.44268057
       13.12168      264.02810712        2.60297167
       13.22137      297.20478222        2.85248177
       13.32107      319.28185676        3.05186926
       13.42076      350.12570393        3.07747593
       13.52045      365.39195990        3.18160886
       13.62015      369.81634200        3.10204510
       13.71984      345.83466491        3.12475102
       13.81953      320.67881112        3.05947930
       13.91923      286.28438464        2.71495280
       14.01892      221.98480552        2.32587532
       14.11861      171.61858731        2.13287942
       14.21831      133.24526395        1.88053213
       14.31800      108.13880818        1.78316165
       14.41769       82.41446317        1.49856330
       14.51739       73.59643462        1.38158591
       14.61708       60.00019115        1.25021832
       14.71677       54.23954749        1.20795147
       14.81647       52.35777152        1.24324348
       14.91616       50.17307892        1.11913384
       15.01585       49.61786151        1.13297282
       15.11555       50.22333933        1.15310181
       15.21524       48.05770064        1.16245451
       15.31493       49.14074380        1.20387279
       15.41463       46.43084322        1.13291881
       15.51432       48.96404690        1.12746612
       15.61402       48.43488593        1.14973114
       15.71371       46.49334325        1.11863768
       15.81340       46.73552263        1.16674763
       15.91310       44.60546910        1.10745881
       16.01279       46.86135097        1.08695039
       16.11248       47.16186074        1.11972406
       16.21218       46.82764032        1.14665583
       16.31187       47.09564955        1.15275512
       16.41156       48.91650753        1.15302619
       16.51126       48.98424538        1.17333639
       16.61095       49.14040356        1.13317254
       16.71064       48.43365106        1.16053317
       16.81034       50.47685812        1.18843008
       16.91003       52.55330058        1.17774227
       17.00972       56.20163993        1.16936252
       17.10942       56.67307808        1.24113385
       17.20911       61.28349065        1.30222354
       17.30880       63.96969550        1.34211137
       17.40850       66.90224524        1.37231799
       17.50819       71.92950371        1.38190430
       17.60788       75.60613620        1.46094691
       17.70758       75.70611581        1.46793996
       17.80727       77.44199725        1.50309605
       17.90696       72.46227619        1.35919459
       18.00666       66.42141465        1.32388441
       18.10635       64.19339400        1.26584525
       18.20604       60.74095209        1.35065646
       18.30574       56.65904440        1.24309075
       18.40543       55.05593205        1.19499756
       18.50512       53.86356861        1.21924123
       18.60482       53.55317104        1.19664339
       18.70451       51.10371446        1.23520060
       18.80420       51.92474986        1.16970190
       18.90390       51.88810589        1.15680531
       19.00359       50.19416578        1.10795887
       19.10328       48.70450436        1.15462173
       19.20298       49.48483361        1.20008179
       19.30267       45.78345624        1.10837971
       19.40237       45.72878584        1.09517877
       19.50206       46.63234056        1.13378730
       19.60175       43.96302349        1.08841279
       19.70145       46.43927215        1.17310619
       19.80114       43.53219864        1.07712307
       19.90083       45.82820050        1.06790133
       20.00053       45.10337325        1.07819308
       20.10022       46.62753135        1.10446048
       20.19991       46.40819201        1.17800152
       20.29961       49.88529573        1.15736305
       20.39930       48.77056480        1.17888253
       20.49899       50.03866161        1.17341758
       20.59869       52.68236557        1.22614429
       20.69838       54.04538456        1.28776293
       20.79807       52.84402233        1.21448857
       20.89777       53.41429582        1.19342466
       20.99746       54.65527411        1.21926495
       21.09715       57.88086476        1.32177856
       21.19685       58.11320555        1.31753646
       21.29654       60.06676131        1.30676328
       21.39623       56.89222396        1.27168789
       21.49593       55.85025737        1.24193440
       21.59562       51.70427322        1.22354495
       21.69531       52.47332747        1.28211308
       21.79501       48.94064277        1.13256826
       21.89470       46.47054434        1.07869016
       21.99439       45.90763349        1.11757105
       22.09409       47.50054488        1.13967538
       22.19378       45.47699379        1.18417953
       22.29347       45.21799392        1.09972386
       22.39317       46.08617743        1.13902715
       22.49286       44.93555511        1.12377386
       22.59255       46.43695010        1.15588706
       22.69225       50.67929266        1.27268935
       22.79194       48.81542190        1.12170470
       22.89163       54.60263463        1.16337523
       22.99133       57.13781316        1.22318745
       23.09102       63.78401520        1.34249591
       23.19072       64.44860569        1.35268642
       23.29041       66.26516262        1.35462610
       23.39010       71.19539249        1.41907084
       23.48980       66.12766466        1.37235429
       23.58949       66.24962687        1.39204554
       23.68918       62.82317583        1.42529587
       23.78888       56.95235641        1.20916676
       23.88857       50.54981724        1.15382128
       23.98826       49.23272885        1.16407180
       24.08796       49.95357182        1.14974581
       24.18765       46.62535371        1.19007376
       24.28734       43.74879173        1.09744684
       24.38704       46.25404776        1.14739306
       24.48673       45.63599211        1.13560096
       24.58642       45.53128397        1.17182489
       24.68612       43.10490902        1.13857025
       24.78581       44.37581488        1.06497668
       24.88550       45.81037227        1.08166725
       24.98520       44.17623413        1.10142709
       25.08489       44.72030344        1.13033786
       25.18458       47.96388372        1.19533891
       25.28428       48.01557003        1.15271525
       25.38397       48.74035367        1.15577063
       25.48366       49.08721717        1.16682883
       25.58336       54.00640942        1.27588634
       25.68305       60.65291747        1.32641154
       25.78274       68.69752239        1.33260947
       25.88244       83.94270144        1.51084558
       25.98213      103.66606410        1.69342441
       26.08182      132.37377976        1.96505276
       26.18152      151.22381569        2.15162305
       26.28121      177.81904716        2.20804844
       26.38090      192.87780949        2.31959219
       26.48060      200.09330374        2.42827342
       26.58029      185.51329993        2.43841087
       26.67998      173.40809049        2.22651695
       26.77968      145.31881839        2.01304986
       26.87937      114.45031444        1.75990490
       26.97907       93.43996797        1.57634397
       27.07876       82.85503448        1.59802168
       27.17845       74.64316793        1.44915019
       27.27815       77.48874079        1.44205047
       27.37784       82.59677076        1.54706954
       27.47753       82.76823739        1.52578799
       27.57723       83.56482857        1.60605910
       27.67692       83.55053959        1.56753111
       27.77661       78.91775737        1.45390969
       27.87631       69.92230758        1.34548616
       27.97600       61.26037580        1.28749201
       28.07569       56.68652624        1.31065977
       28.17539       54.45136117        1.22968694
       28.27508       48.61071114        1.16215569
       28.37477       50.98868195        1.21867544
       28.47447       48.40339563        1.17799754
       28.57416       48.50450312        1.27489126
       28.67385       52.73686286        1.18287144
       28.77355       53.93227630        1.17465976
       28.87324       55.66374134        1.22521800
       28.97293       56.36687095        1.23583593
       29.07263       57.84491791        1.36474102
       29.17232       58.23253268        1.24962868
       29.27201       55.45918302        1.24192363
       29.37171       52.27838281        1.24026948
       29.47140       50.72632367        1.20756208
       29.57109       46.49484480        1.22575249
       29.67079       46.43561705        1.11520270
       29.77048       46.31049575        1.11627860
       29.87017       46.75550215        1.09963152
       29.96987       46.99455939        1.15594825
       30.06956       48.02359050        1.20560133
       30.16925       46.51284405        1.11709064
       30.26895       45.82333308        1.11298841
       30.36864       48.89092947        1.16855201
       30.46833       48.13699543        1.17122343
       30.56803       53.46506913        1.30411411
       30.66772       58.12410142        1.26554354
       30.76742       58.07251863        1.23964275
       30.86711       61.88798217        1.30538013
       30.96680       63.41905766        1.32912944
       31.06650       62.45195562        1.38294871
       31.16619       62.65073174        1.30238546
       31.26588       60.34521037        1.27042394
       31.36558       56.49880532        1.24520425
       31.46527       58.60370363        1.31966372
       31.56496       60.05216387        1.35739064
       31.66466       62.69251449        1.29712854
       31.76435       69.55111540        1.36511064
       31.86404       78.08645862        1.42778236
       31.96374       85.05203086        1.52496093
       32.06343       87.54761537        1.60119285
       32.16312       86.43020467        1.49509644
       32.26282       84.26828508        1.51229827
       32.36251       77.27555143        1.50585180
       32.46220       73.90016578        1.49891182
       32.56190       70.82847080        1.49335364
       32.66159       66.71223573        1.37616174
       32.76128       62.30148965        1.29986301
       32.86098       64.42686559        1.34180433
       32.96067       64.70871002        1.36159893
       33.06036       62.62868628        1.36388011
       33.16006       59.09339025        1.24751095
       33.25975       53.39317948        1.22409584
       33.35944       58.54014732        1.28891823
       33.45914       58.54242002        1.33797025
       33.55883       58.34563899        1.33883495
       33.65852       61.23353443        1.27908795
       33.75822       63.69440057        1.30233753
       33.85791       71.39849131        1.38474118
       33.95760       80.60126076        1.51506532
       34.05730       93.46974596        1.61619061
       34.15699      105.80213659        1.69258575
       34.25668      124.52064348        1.83050590
       34.35638      149.03599284        2.05514614
       34.45607      186.85479028        2.42493989
       34.55577      232.33750252        2.57808298
       34.65546      296.63711972        2.79552902
       34.75515      367.34440857        3.17192340
       34.85485      423.67430589        3.38187110
       34.95454      445.51548237        3.57740345
       35.05423      429.81470457        3.63328587
       35.15393      390.63788120        3.25218490
       35.25362      316.76611008        2.97214937
       35.35331      241.38695505        2.66002570
       35.45301      191.85989870        2.47401504
       35.55270      145.66232440        2.09777285
       35.65239      110.30404092        1.76208150
       35.75209       86.38232085        1.54715071
       35.85178       79.90416613        1.48585955
       35.95147       74.17340843        1.46508277
       36.05117       70.57819484        1.39959814
       36.15086       67.17333249        1.31277761
       36.25055       63.54678426        1.33386365
       36.35025       60.36069288        1.32532306
       36.44994       59.55152752        1.34269707
       36.54963       58.49615960        1.27741884
       36.64933       57.61561859        1.24881411
       36.74902       53.53630667        1.21619901
       36.84871       55.86212879        1.23347519
       36.94841       54.75628986        1.32060923
       37.04810       52.31000717        1.13803822
       37.14779       49.79801521        1.13304604
       37.24749       49.04714240        1.15572058
       37.34718       45.75243088        1.14456995
       37.44687       48.32403695        1.26368979
       37.54657       47.63996807        1.14544369
       37.64626       48.20772651        1.14785385
       37.74595       47.13587301        1.11723266
       37.84565       46.34534153        1.17214559
       37.94534       47.45589623        1.20838895
       38.04503       45.66573161        1.07130780
       38.14473       47.22813215        1.10021765
       38.24442       46.06187782        1.10636101
       38.34412       47.60972218        1.17602291
       38.44381       49.09451718        1.29136831
       38.54350       47.71812393        1.13483459
       38.64320       48.71714716        1.14321714
       38.74289       51.22910663        1.18775763
       38.84258       53.98421141        1.22234498
       38.94228       53.74259491        1.27919463
       39.04197       58.37375527        1.20231999
       39.14166       64.35658981        1.31350561
       39.24136       68.87572364        1.35536874
       39.34105       71.12470721        1.42544286
       39.44074       71.70541453        1.56118262
       39.54044       71.30530538        1.39198605
       39.64013       70.31342122        1.37800890
       39.73982       67.54876779        1.35600109
       39.83952       62.45921105        1.29488904
       39.93921       61.36443177        1.36087025
       40.03890       59.79915876        1.22963976
       40.13860       57.38949994        1.20295451
       40.23829       55.44816908        1.22418208
       40.33798       57.83815671        1.28937011
       40.43768       53.93258178        1.30250994
       40.53737       55.58814644        1.22738287
       40.63706       56.42781848        1.26261945
       40.73676       60.02185731        1.30030464
       40.83645       59.07807699        1.30076652
       40.93614       63.31527666        1.36936690
       41.03584       68.05685958        1.33625400
       41.13553       76.47188011        1.41835857
       41.23522       90.44881302        1.58048616
       41.33492      112.42811435        1.84542601
       41.43461      137.49711153        2.10723852
       41.53430      164.52377478        2.15968929
       41.63400      191.13627786        2.37967020
       41.73369      210.51200120        2.44361627
       41.83338      212.96693901        2.52332005
       41.93308      214.22376332        2.50824318
       42.03277      223.03457950        2.33971304
       42.13247      251.45109597        2.61251227
       42.23216      291.77925878        2.82041189
       42.33185      355.39002769        3.34352496
       42.43155      416.07970463        3.56568591
       42.53124      477.82535349        3.70099180
       42.63093      520.39495113        3.87007663
       42.73063      536.30813119        3.94646762
       42.83032      530.06927220        3.99356833
       42.93001      491.46198306        3.69989191
       43.02971      423.86433845        3.24476009
       43.12940      347.36170867        2.99590263
       43.22909      267.13899585        2.75938261
       43.32879      203.06863297        2.53264120
       43.42848      154.80400521        2.16136562
       43.52817      115.02691188        1.78140776
       43.62787       90.83229416        1.57708785
       43.72756       77.60585488        1.49188294
       43.82725       69.26553016        1.47144514
       43.92695       62.93453518        1.27167545
       44.02664       57.63402538        1.21093702
       44.12633       55.37314842        1.23110817
       44.22603       55.77194607        1.28604257
       44.32572       53.29241554        1.32485153
       44.42541       53.34619623        1.26554539
       44.52511       54.37932602        1.24341864
       44.62480       57.38396564        1.29550127
       44.72449       57.46392135        1.25631768
       44.82419       61.96921472        1.46415096
       44.92388       62.90480906        1.23028794
       45.02357       75.65454591        1.36075151
       45.12327       87.92157296        1.51134524
       45.22296      110.27884124        1.73808660
       45.32265      126.39208367        2.05873475
       45.42235      148.66693146        2.03368101
       45.52204      176.91606164        2.19715869
       45.62174      204.14438956        2.40403492
       45.72143      225.92460784        2.52974721
       45.82112      231.42494955        2.80272540
       45.92082      229.87677474        2.37117038
       46.02051      229.18133869        2.41817303
       46.12020      229.15295999        2.42626699
       46.21990      212.33867561        2.45347292
       46.31959      199.50865616        2.56783845
       46.41928      181.58745565        2.26218886
       46.51898      155.62563587        2.10497139
       46.61867      121.97179691        1.85274825
       46.71836      101.02341312        1.72877536
       46.81806       86.30969698        1.65640556
       46.91775       73.11442103        1.32844196
       47.01744       64.33778744        1.27555024
       47.11714       66.58009933        1.32732640
       47.21683       68.03848120        1.38130227
       47.31652       76.96867527        1.60314335
       47.41622       87.86832768        1.61458175
       47.51591      103.82417984        1.75886388
       47.61560      119.97220420        1.87537537
       47.71530      134.12396908        2.00464079
       47.81499      145.68562304        2.14205629
       47.91468      158.39937116        1.95425402
       48.01438      171.80309564        2.03671643
       48.11407      174.21906352        2.12771193
       48.21376      174.47914556        2.22317100
       48.31346      170.65476361        2.27691531
       48.41315      156.87754408        2.03429822
       48.51284      144.27251919        2.01547378
       48.61254      124.43765572        1.86351716
       48.71223      106.55192489        1.75513233
       48.81192       94.73153090        1.65070917
       48.91162       78.99689494        1.35081046
       49.01131       63.80901379        1.25607770
       49.11100       58.78209343        1.24887408
       49.21070       53.25218911        1.24775824
       49.31039       54.45118604        1.29861345
       49.41009       51.91674290        1.19779083
       49.50978       48.32323849        1.17935740
       49.60947       50.40398409        1.21338669
       49.70917       48.86783941        1.23898806
       49.80886       49.95231310        1.21919540
       49.90855       49.71486023        1.10795663
       50.00825       48.62553432        1.11885210
       50.10794       51.24033733        1.17478800
       50.20763       50.84347153        1.22260212
       50.30733       52.42014404        1.30043847
       50.40702       51.73582460        1.21149207
       50.50671       56.18835980        1.26645459
       50.60641       54.93872628        1.25401110
       50.70610       57.08113182        1.31534871
       50.80579       56.53622814        1.29175597
       50.90549       58.12722155        1.18096675
       51.00518       56.26714779        1.17214238
       51.10487       54.39730517        1.19125312
       51.20457       53.80696159        1.26126930
       51.30426       57.04053550        1.29200674
       51.40395       56.54421985        1.23318839
       51.50365       56.62411692        1.24815719
       51.60334       60.98910129        1.32115784
       51.70303       58.93243970        1.37903717
       51.80273       61.70722283        1.29451303
       51.90242       60.10458030        1.19359949
       52.00211       62.94772943        1.22740312
       52.10181       60.60337039        1.24234509
       52.20150       62.61824784        1.39081707
       52.30119       59.30432851        1.30368672
       52.40089       62.01159775        1.31236185
       52.50058       61.95536907        1.33654558
       52.60027       62.59707728        1.36182969
       52.69997       62.94807521        1.49664017
       52.79966       61.39927034        1.24262829
       52.89935       64.33800291        1.22747260
       52.99905       75.26062215        1.34973172
       53.09874       85.84177596        1.48836445
       53.19844      100.73124061        1.84698335
       53.29813      110.33156119        1.71808704
       53.39782      123.37938052        1.87997742
       53.49752      130.75907598        1.94431856
       53.59721      142.52979062        2.02892514
       53.69690      143.37661393        2.23270085
       53.79660      150.98685072        1.91969945
       53.89629      151.72397662        1.90367649
       53.99598      145.61939610        1.91028159
       54.09568      136.97370118        1.93437435
       54.19537      126.99554239        2.03093024
       54.29506      113.61315161        1.76417094
       54.39476      107.65415555        1.73044755
       54.49445       98.65185864        1.65732529
       54.59414       90.23090206        1.60876778
       54.69384       92.37985366        1.73673583
       54.79353       87.04390140        1.44541865
       54.89322       84.59513725        1.41971731
       54.99292       82.20110088        1.44037788
       55.09261       75.71369733        1.43729988
       55.19230       71.32246239        1.49788348
       55.29200       66.64865204        1.34750902
       55.39169       62.07177128        1.34162317
       55.49138       58.95592091        1.30254752
       55.59108       56.73927651        1.31871759
       55.69077       55.54174531        1.33894883
       55.79046       56.48686279        1.18057463
       55.89016       57.35708663        1.18682783
       55.98985       56.81396009        1.18874421
       56.08954       59.45375584        1.25623355
       56.18924       62.12858107        1.38600453
       56.28893       74.29239721        1.38766369
       56.38862       84.48927700        1.53113550
       56.48832       98.69771295        1.68398424
       56.58801      104.75678062        1.78523177
       56.68770      110.69376225        1.89426148
       56.78740      115.80462407        1.65839892
       56.88709      113.97214487        1.66154451
       56.98679      106.26027194        1.60544265
       57.08648       96.59693734        1.62225831
       57.18617       86.98653432        1.59363636
       57.28587       79.21735774        1.42069083
       57.38556       65.88213052        1.37866500
       57.48525       60.80873042        1.34980690
       57.58495       56.33961642        1.32887509
       57.68464       54.85238926        1.32260996
       57.78433       52.43133843        1.13110959
       57.88403       51.78937121        1.13724385
       57.98372       51.37830575        1.15074205
       58.08341       51.29615418        1.24322054
       58.18311       50.81626907        1.26574909
       58.28280       52.99030916        1.21752363
       58.38249       52.14126688        1.26192682
       58.48219       55.80224092        1.33383851
       58.58188       54.86627178        1.33702551
       58.68157       53.68424032        1.29592744
       58.78127       53.09463775        1.12728581
       58.88096       51.56211920        1.09444766
       58.98065       56.70628550        1.19166251
       59.08035       56.27831453        1.26673683
       59.18004       57.15348687        1.29497438
       59.27973       56.97114619        1.21982449
       59.37943       62.89282088        1.32416205
       59.47912       68.09667997        1.43456941
       59.57881       73.39104513        1.56041122
       59.67851       73.80992857        1.45889549
       59.77820       82.63413998        1.41939766
       59.87789       93.49526518        1.50488487
       59.97759      102.80793692        1.65117264
       60.07728      104.41049899        1.80196250
       60.17697      106.25663696        1.73177205
       60.27667      109.03739873        1.70573183
       60.37636      109.12635520        1.73953350
       60.47605      103.64881672        1.76829906
       60.57575      103.56872849        1.93727738
       60.67544       94.91151123        1.59289387
       60.77514       85.70666233        1.43866264
       60.87483       77.83536787        1.34413516
       60.97452       70.30423572        1.34550246
       61.07422       68.37260572        1.49053803
       61.17391       69.19071153        1.29890326
       61.27360       65.17612144        1.30523982
       61.37330       67.60635152        1.37877089
       61.47299       70.23955913        1.46726426
       61.57268       70.50082086        1.67165574
       61.67238       71.25483359        1.36973905
       61.77207       68.08212144        1.30384192
       61.87176       74.64972198        1.35038259
       61.97146       68.63307426        1.34401594
       62.07115       68.27192914        1.51815910
       62.17084       68.01825337        1.32761032
       62.27054       66.18756387        1.36543651
       62.37023       65.53946683        1.41283152
       62.46992       68.47644615        1.49379132
       62.56962       69.06670278        1.68500124
       62.66931       70.31112610        1.36965689
       62.76900       75.78608515        1.38622502
       62.86870       86.13986875        1.44610787
       62.96839       92.65790617        1.54793750
       63.06808       98.59038141        1.77718500
       63.16778      105.12448570        1.62928175
       63.26747      110.43426101        1.72829081
       63.36716      115.65844442        1.83573327
       63.46686      120.84174549        1.93293915
       63.56655      119.29135680        2.04006635
       63.66624      132.81822405        1.83035663
       63.76594      145.17020676        1.85938498
       63.86563      158.90183745        1.94002513
       63.96532      167.69032546        2.08588883
       64.06502      175.03018644        2.28351254
       64.16471      170.60009661        2.08501559
       64.26440      165.37487484        2.13686790
       64.36410      152.06678051        2.08983679
       64.46379      138.19742671        2.10628661
       64.56349      120.40069482        2.00004509
       64.66318      106.13553593        1.64304855
       64.76287       85.24961989        1.45354574
       64.86257       73.72243000        1.34925593
       64.96226       65.91626798        1.33610176
       65.06195       60.10253658        1.37932382
       65.16165       54.75090354        1.18736832
       65.26134       54.45605119        1.21188180
       65.36103       56.61091155        1.28944884
       65.46073       54.91732488        1.31166375
       65.56042       54.73021187        1.36760761
       65.66011       55.41273870        1.19993755
       65.75981       59.15398087        1.22754148
       65.85950       59.25313086        1.22072820
       65.95919       60.98093114        1.29641022
       66.05889       65.03014584        1.38492248
       66.15858       69.76093491        1.36419476
       66.25827       78.17382644        1.49381522
       66.35797       87.63861861        1.64803578
       66.45766       94.64942310        1.81996523
       66.55735      110.63538366        1.96790912
       66.65705      122.52235296        1.83739662
       66.75674      138.72411203        1.90585983
       66.85643      153.49144421        1.98258846
       66.95613      164.71396089        2.13597637
       67.05582      168.39207442        2.17603644
       67.15551      169.45774877        2.07736740
       67.25521      161.81407303        2.13031933
       67.35490      152.25573484        2.17506771
       67.45459      137.99265615        2.18321622
       67.55429      121.67179248        1.96353267
       67.65398      103.20638606        1.62035895
       67.75367       90.20174133        1.50205871
       67.85337       77.88908066        1.41250890
       67.95306       76.68682989        1.49870694
       68.05275       75.60779631        1.40903966
       68.15245       79.13061513        1.42919275
       68.25214       88.41304496        1.60381953
       68.35184       93.89773917        1.72269494
       68.45153      101.45869182        1.97166096
       68.55122      107.41972760        1.74789959
       68.65092      116.83044020        1.69942092
       68.75061      126.17327056        1.78471857
       68.85030      127.07200583        1.82553888
       68.95000      128.95597253        2.08516488
       69.04969      121.12566149        1.70627313
       69.14938      115.87438122        1.71596153
       69.24908      105.34018749        1.74685447
       69.34877       94.06180659        1.70681798
       69.44846       84.77008124        1.87904530
       69.54816       78.77956400        1.41218292
       69.64785       66.22020139        1.27606016
       69.74754       59.52339213        1.22176824
       69.84724       54.77681252        1.20244287
       69.94693       53.75695021        1.34430956
       70.04662       48.81546275        1.05327338
       70.14632       47.16582016        1.07653414
       70.24601       46.95355175        1.15007505
       70.34570       47.85489448        1.22866478
       70.44540       48.37770578        1.45557059
       70.54509       50.50071548        1.16414224
       70.64478       48.07431001        1.13411901
       70.74448       49.94108879        1.17432770
       70.84417       49.83578871        1.21729075
       70.94386       50.46369035        1.34466523
       71.04356       51.06005332        1.11928582
       71.14325       52.23913594        1.17653779
       71.24294       53.93635746        1.25793128
       71.34264       54.59632835        1.34200652
       71.44233       52.22244609        1.46449341
       71.54202       55.58584171        1.23022187
       71.64172       55.07432374        1.19115425
       71.74141       51.60845391        1.13200309
       71.84110       50.88723689        1.16355518
       71.94080       52.18043985        1.28398020
       72.04049       49.71697946        1.06070705
       72.14019       50.57268472        1.11465905
       72.23988       52.73895763        1.19108781
       72.33957       50.13836808        1.29711646
       72.43927       51.24325578        1.44356869
       72.53896       52.35459497        1.16995957
       72.63865       53.08461920        1.15155734
       72.73835       54.81930765        1.14455416
       72.83804       54.66065051        1.20685009
       72.93773       58.07146077        1.32148950
       73.03743       59.51313487        1.16127621
       73.13712       61.61490584        1.24618266
       73.23681       62.29200688        1.31643275
       73.33651       64.93409681        1.47907801
       73.43620       62.93998919        1.57714968
       73.53589       65.72424977        1.30023321
       73.63559       65.00885870        1.27279933
       73.73528       64.25529691        1.25961805
       73.83497       66.88531634        1.36258403
       73.93467       66.14264372        1.42677960
       74.03436       64.42070346        1.24607543
       74.13405       63.11421194        1.28575364
       74.23375       64.43548705        1.35330618
       74.33344       64.59008307        1.49159857
       74.43313       64.31791893        1.54449513
       74.53283       64.50827096        1.31421250
       74.63252       70.30407663        1.36231397
       74.73221       72.13905518        1.37331193
       74.83191       75.46689577        1.49018457
       74.93160       78.66510168        1.53872462
       75.03129       81.29373594        1.39072989
       75.13099       84.37442264        1.46766016
       75.23068       88.89745331        1.57153991
       75.33037       94.94318530        1.78549571
       75.43007      100.24270373        1.86135031
       75.52976      106.79543177        1.66898946
       75.62945      117.49925915        1.74958764
       75.72915      125.32607590        1.80009179
       75.82884      129.77724596        1.97238404
       75.92854      135.87956521        1.89490810
       76.02823      142.64530873        1.82120945
       76.12792      151.24417999        1.96058870
       76.22762      148.03624244        2.04621495
       76.32731      151.69059201        2.33960486
       76.42700      151.79216139        2.20891699
       76.52670      145.77608665        1.99664636
       76.62639      141.12114721        1.93943323
       76.72608      133.28183808        1.85311225
       76.82578      127.17506007        2.08543030
       76.92547      127.30563289        1.67128293
       77.02516      122.58230238        1.69949779
       77.12486      124.26674950        1.79760880
       77.22455      125.76960779        1.92564989
       77.32424      131.93677695        2.42348382
       77.42394      131.07670627        1.92866358
       77.52363      136.05104786        1.89905081
       77.62332      135.59919967        1.88713518
       77.72302      137.83633072        1.90702868
       77.82271      141.56044081        2.26672552
       77.92240      144.43866489        1.75343880
       78.02210      147.54591669        1.91247947
       78.12179      142.88925901        2.00983442
       78.22148      136.78248147        2.07902819
       78.32118      139.39021894        2.43559481
       78.42087      131.63369417        1.86233398
       78.52056      121.45757211        1.84678909
       78.62026      116.89230834        1.79734419
       78.71995      107.46578647        1.72865642
       78.81964      104.81219145        1.90681647
       78.91934       95.18096038        1.40759874
       79.01903       84.10906674        1.45020367
       79.11872       76.59823078        1.43995696
       79.21842       71.81108406        1.48711423
       79.31811       68.89178890        1.64056185
       79.41780       67.27227832        1.31502582
       79.51750       64.89180796        1.31224629
       79.61719       65.08015803        1.31802527
       79.71689       65.86256386        1.37666106
       79.81658       64.45404909        1.44356342
       79.91627       65.20544129        1.23078230
       80.01597       62.56267951        1.23904831
       80.11566       64.19691922        1.31213872
       80.21535       61.58975010        1.37371138
       80.31505       61.61758032        1.63338306
       80.41474       65.13835293        1.29063666
       80.51443       67.38775608        1.30708448
       80.61413       73.25213584        1.40824833
       80.71382       78.26734769        1.50607050
       80.81351       82.40710284        1.73673143
       80.91321       91.96645775        1.35333158
       81.01290      107.03548204        1.57673848
       81.11259      128.59908991        1.86645861
       81.21229      145.35567552        2.14710377
       81.31198      158.14901895        2.49883581
       81.41167      175.08118043        2.05918601
       81.51137      196.49911456        2.24510836
       81.61106      212.53221108        2.43870005
       81.71075      228.50771460        2.61795228
       81.81045      233.47896835        2.80344105
       81.91014      255.13552649        2.25444658
       82.00983      273.22458215        2.49454471
       82.10953      283.41727245        2.84268011
       82.20922      285.39289376        3.17229625
       82.30891      301.61000086        3.42124213
       82.40861      297.93239439        2.76470567
       82.50830      285.85225319        2.69994619
       82.60799      285.36160375        2.90587283
       82.70769      288.44451485        3.17975655
       82.80738      284.92685133        3.01921249
       82.90707      279.58495527        2.42830052
       83.00677      277.16696638        2.57630134
       83.10646      263.28579914        2.95360465
       83.20615      258.63383071        3.25853764
       83.30585      243.74875518        2.99588546
       83.40554      223.91342406        2.38631713
       83.50524      208.60704765        2.24702877
       83.60493      183.04492788        2.31750609
       83.70462      175.30285784        2.55737841
       83.80432      160.56886020        2.13837616
       83.90401      138.39647823        1.66456330
       84.00370      116.33283442        1.59095434
       84.10340       96.51657086        1.73079678
       84.20309       90.73353319        2.03711625
       84.30278       80.15540470        1.55671084
       84.40248       75.08643121        1.32958980
       84.50217       68.80835485        1.24842094
       84.60186       67.69150415        1.40010652
       84.70156       67.44546837        1.82881596
       84.80125       67.88849886        1.27744917
       84.90094       62.77438804        1.10328773
       85.00064       64.54397167        1.15269783
       85.10033       65.03614835        1.36940443
       85.20002       62.75002082        2.30683253
       85.29972       66.54643840        1.25330597
       85.39941       66.62003421        1.27851307
       85.49910       67.26307467        1.24933500
       85.59880       67.99937952        1.41253711
       85.69849       68.38350887        2.54318085
       85.79818       65.67692927        1.17493965
       85.89788       64.03629297        1.13238616
       85.99757       63.44948314        1.15816232
       86.09726       65.05389359        1.34652462
       86.19696       59.83107279        2.47976163
       86.29665       62.71255082        1.20154033
       86.39634       60.11528800        1.19670315
       86.49604       61.93216751        1.19635969
       86.59573       57.16622669        1.22447108
       86.69542       55.87989088        2.53103898
       86.79512       54.02881830        1.03304168
       86.89481       54.86518197        1.02636735
       86.99451       54.73250000        1.06258180
       87.09420       53.04943636        1.16663534
       87.19389       51.38604123        2.71967235
       87.29359       53.59602266        1.12574970
       87.39328       49.10281440        1.09191386
       87.49297       49.91872025        1.06880043
       87.59267       48.75818910        1.07703080
       87.69236       50.05389960        3.26548164
       87.79205       50.01889432        1.01688035
       87.89175       48.80239054        0.99630927
       87.99144       51.26241004        1.06410441
       88.09113       50.57284452        1.12335515
       88.19083       49.59021061        5.88625521
       88.29052       51.14375611        1.13681950
       88.39021       48.13572781        1.11011559
       88.48991       50.86633816        1.09530392
       88.58960       48.94262437        1.04038595
       88.68929       37.79996875        7.08012761
       88.78899       49.05548691        1.00537779
       88.88868       50.69849609        0.99981092
       88.98837       51.00358438        1.04303123
       89.08807       48.98635245        1.04693553
       89.18776       43.85306331        8.05832038
       89.28745       50.28901086        1.07779732
       89.38715       51.87510029        1.10596744
       89.48684       53.55583270        1.09976136
       89.58653       58.72446278        1.12841521
       89.68623       48.19668609        8.28431419
       89.78592       58.10740715        1.09065499
       89.88561       63.77227766        1.12037262
       89.98531       63.86714492        1.14967510
       90.08500       69.05838496        1.24009976
       90.18469       72.26942008       10.58147062
       90.28439       75.60216273        1.32545147
       90.38408       77.48415326        1.36443138
       90.48377       86.19504100        1.41245976
       90.58347       88.95725276        1.41245884
       90.68316       89.94733874       11.06376405
       90.78286       91.37792710        1.37042241
       90.88255       93.88143509        1.35172353
       90.98224       96.82857827        1.42045921
       91.08194      103.53400689        1.51736531
       91.18163      110.59710335       12.51741929
       91.28132       99.31414340        1.52987913
       91.38102       98.61266978        1.56488542
       91.48071      100.13449999        1.53830282
       91.58040       92.56080711        1.42998775
       91.68010       83.46921838       10.27002331
       91.77979       86.92740397        1.33004888
       91.87948       84.99082285        1.29475723
       91.97918       80.32498825        1.30684811
       92.07887       79.54376543        1.35465071
       92.17856       72.92783799        9.86000984
       92.27826       77.79951142        1.38357038
       92.37795       75.89026235        1.39881075
       92.47764       74.52846152        1.31586078
       92.57734       76.52521928        1.29359813
       92.67703       69.34756064        7.99156556
       92.77672       81.71707166        1.28860014
       92.87642       83.65592210        1.27898627
       92.97611       86.04706889        1.35458160
       93.07580       90.18507123        1.58297414
       93.17550       90.98841301        2.98992794
       93.27519       90.10884065        1.45844172
       93.37488       88.90699730        1.40816273
       93.47458       97.59841168        1.49206429
       93.57427       97.77658451        1.72659676
       93.67396       99.75787050        2.35703453
       93.77366       97.94404553        1.44671397
       93.87335       99.44763507        1.39253492
       93.97304       94.17557651        1.41194960
       94.07274       93.41802875        1.82569497
       94.17243       91.58463621        2.06247872
       94.27212       90.26059814        1.52495188
       94.37182       88.04448317        1.46774366
       94.47151       89.94471470        1.42080702
       94.57121       87.64306362        1.85083379
       94.67090       85.10058446        1.84474763
       94.77059       87.26954191        1.45232566
       94.87029       79.99524840        1.26409627
       94.96998       71.81863955        1.21258149
       95.06967       69.82249104        1.37819042
       95.16937       69.91976968        1.88793172
       95.26906       66.65587428        1.42386588
       95.36875       62.94030855        1.25532448
       95.46845       63.42502920        1.21108080
       95.56814       58.89111389        1.34263608
       95.66783       57.32195862        1.48807749
       95.76753       56.82067481        1.22428523
       95.86722       55.62795952        1.03036828
       95.96691       54.52019930        1.05801580
       96.06661       53.75070965        1.34570530
       96.16630       53.83765853        1.43622212
       96.26599       51.59692813        1.26259487
       96.36569       52.55298422        1.14338649
       96.46538       49.79537328        1.07402356
       96.56507       46.56919137        1.28181804
       96.66477       47.11553038        1.25636953
       96.76446       48.11067014        1.13454931
       96.86415       48.64550033        0.98820593
       96.96385       47.05507486        1.00378257
       97.06354       48.16105968        1.37323167
       97.16323       49.37011399        1.32946250
       97.26293       50.79693522        1.26701345
       97.36262       51.35790483        1.17977886
       97.46231       49.48560160        1.06533769
       97.56201       50.24729734        1.36579599
       97.66170       49.14385131        1.21314858
       97.76139       50.97309999        1.12252786
       97.86109       52.38626672        1.02907014
       97.96078       54.10382096        1.06871318
       98.06047       54.69351891        1.49252116
       98.16017       56.09797895        1.34378961
       98.25986       56.70431294        1.29050359
       98.35956       58.20813582        1.23446648
       98.45925       62.06920850        1.19000980
       98.55894       63.18477869        1.56626519
       98.65864       64.58030294        1.35870111
       98.75833       66.57312531        1.28905149
       98.85802       68.14457835        1.21779790
       98.95772       72.01674670        1.24373176
       99.05741       71.24945938        1.71733525
       99.15710       72.61949245        1.49110656
       99.25680       73.66519054        1.45501368
       99.35649       78.80007855        1.43353158
       99.45618       83.05574061        1.37172494
       99.55588       83.64380374        1.83939078
       99.65557       84.02601920        1.52095850
       99.75526       84.35058255        1.42831156
       99.85496       87.66371524        1.38603690
       99.95465       85.49562347        1.34183188
      100.05434       87.55595618        1.93458142
      100.15404       87.50417276        1.62900031
      100.25373       83.64304711        1.57336806
      100.35342       86.17751081        1.59092713
      100.45312       84.83935245        1.44034032
      100.55281       86.47153465        1.90997620
      100.65250       84.40981650        1.53720974
      100.75220       80.55611747        1.39081909
      100.85189       80.81877693        1.33110808
      100.95158       79.87015781        1.28787493
      101.05128       78.09903082        1.81553866
      101.15097       78.48596524        1.50423538
      101.25066       78.40653237        1.48544556
      101.35036       78.61763456        1.50034959
      101.45005       75.13319350        1.37908533
      101.54974       76.90489196        1.73793968
      101.64944       74.29065295        1.39350574
      101.74913       75.52607307        1.32391302
      101.84882       76.72177932        1.29893928
      101.94852       76.27334008        1.36423237
      102.04821       76.48946995        1.64551457
      102.14791       79.00448478        1.50730293
      102.24760       82.06795817        1.52343898
      102.34729       81.08243801        1.50803217
      102.44699       80.77718948        1.53134414
      102.54668       79.62347720        1.59528898
      102.64637       80.99918882        1.43711385
      102.74607       83.66478906        1.39112981
      102.84576       83.83393041        1.36610110
      102.94545       88.72844075        1.60097185
      103.04515       82.56252035        1.63452781
      103.14484       86.35725988        1.56205748
      103.24453       84.67152736        1.52278326
      103.34423       83.73799657        1.50205759
      103.44392       86.91044239        1.65779190
      103.54361       86.54536278        1.60705072
      103.64331       84.86477146        1.44848573
      103.74300       85.65651940        1.38812920
      103.84269       87.64506028        1.37993937
      103.94239       86.03515325        1.64290663
      104.04208       83.45829050        1.56528395
      104.14177       82.05635727        1.50996228
      104.24147       85.54093338        1.54109415
      104.34116       80.56131793        1.50458754
      104.44085       82.19448430        1.72617946
      104.54055       77.34045098        1.51575810
      104.64024       79.99634102        1.44919699
      104.73993       75.02539179        1.33902637
      104.83963       75.03761326        1.29017244
      104.93932       74.06034492        1.55379795
      105.03901       74.57195100        1.46913725
      105.13871       70.64628752        1.37667349
      105.23840       68.54842782        1.35520047
      105.33809       69.91278775        1.37676586
      105.43779       68.35026451        1.58383364
      105.53748       65.17723556        1.38685131
      105.63717       65.16956573        1.27113682
      105.73687       64.42784459        1.20278564
      105.83656       62.62659925        1.15544879
      105.93626       59.11422579        1.42241280
      106.03595       60.45604475        1.30378195
      106.13564       58.37010951        1.23810605
      106.23534       58.53548456        1.25513387
      106.33503       57.10447793        1.25215776
      106.43472       53.65987004        1.43482033
      106.53442       55.11868283        1.26492917
      106.63411       51.85945512        1.11444496
      106.73380       55.67989936        1.10074851
      106.83350       54.64355731        1.07413724
      106.93319       55.97493966        1.40935014
      107.03288       55.62762446        1.24518988
      107.13258       56.69486262        1.22021417
      107.23227       57.93381416        1.25143085
      107.33196       56.46554120        1.23201626
      107.43166       56.76478717        1.48425372
      107.53135       57.56226243        1.28961259
      107.63104       59.28870152        1.19182361
      107.73074       60.37269138        1.15389812
      107.83043       61.32145805        1.14826783
      107.93012       66.25418911        1.57919360
      108.02982       63.08999387        1.34864409
      108.12951       63.62625775        1.28796864
      108.22920       62.48786634        1.25587789
      108.32890       64.19147992        1.26082226
      108.42859       65.16254034        1.61229225
      108.52828       64.76550559        1.36343237
      108.62798       66.01401579        1.24821480
      108.72767       69.50026904        1.22945845
      108.82736       67.12761402        1.23481045
      108.92706       63.52284306        1.52111594
      109.02675       67.19202367        1.36879080
      109.12644       66.49631384        1.32899175
      109.22614       65.63308268        1.32133622
      109.32583       68.25383959        1.46844635
      109.42552       67.78336230        1.54356289
      109.52522       63.66595823        1.34944345
      109.62491       62.85788823        1.27534058
      109.72461       61.24438732        1.20347904
      109.82430       61.91001074        1.13032706
      109.92399       60.04247080        1.44720452
      110.02369       59.44891974        1.26102185
      110.12338       60.14071260        1.26010416
      110.22307       59.90669362        1.24822774
      110.32277       60.61797879        1.28221990
      110.42246       58.61900165        1.53300387
      110.52215       56.84963934        1.27857428
      110.62185       58.18800576        1.21916134
      110.72154       54.16239908        1.09721373
      110.82123       54.60329856        1.13778138
      110.92093       54.54406467        1.32630163
      111.02062       57.41541658        1.25727448
      111.12031       58.23029602        1.27565566
      111.22001       55.47485681        1.22166469
      111.31970       58.26023726        1.35885444
      111.41939       57.10384356        1.39201809
      111.51909       59.23014634        1.28648383
      111.61878       57.45579490        1.19352538
      111.71847       60.53915035        1.13996875
      111.81817       67.09927443        1.30287829
      111.91786       64.86783512        1.34802044
      112.01755       70.21763469        1.36972520
      112.11725       69.90877323        1.37704581
      112.21694       71.34867705        1.38497750
      112.31663       68.62607390        1.49663119
      112.41633       73.49488732        1.52179618
      112.51602       77.03322462        1.43490195
      112.61571       79.82202381        1.39347915
      112.71541       84.02452050        1.34752219
      112.81510       88.74432490        1.55305300
      112.91479       85.45805661        1.55227417
      113.01449       88.51505007        1.54718132
      113.11418       89.22552121        1.54822491
      113.21387       88.47204126        1.53462012
      113.31357       90.67890698        1.72557333
      113.41326       93.87668966        1.66874596
      113.51296       92.77785935        1.56043255
      113.61265       95.02137081        1.52387677
      113.71234       93.30049861        1.44223754
      113.81204       90.38921548        1.62613206
      113.91173       90.78500173        1.57922092
      114.01142       90.00361491        1.55652934
      114.11112       87.52831009        1.53402878
      114.21081       88.69224996        1.55542756
      114.31050       92.78115075        1.80437738
      114.41020       88.24429700        1.62580945
      114.50989       87.49132977        1.51547648
      114.60958       86.31275686        1.45657862
      114.70928       85.61976866        1.39915399
      114.80897       85.32718424        1.58416859
      114.90866       86.08779196        1.50087636
      115.00836       86.84711208        1.50047482
      115.10805       82.84820329        1.47329826
      115.20774       86.98702555        1.53271875
      115.30744       88.07898644        1.77092070
      115.40713       89.40894365        1.61616811
      115.50682       89.04333904        1.52264514
      115.60652       89.00127080        1.46713340
      115.70621       89.70365982        1.41560864
      115.80590       91.40270520        1.66708785
      115.90560       91.88833392        1.51502720
      116.00529       96.20491410        1.56773811
      116.10498       92.62337964        1.55415689
      116.20468       98.65904926        1.64116924
      116.30437      103.33226396        2.00250061
      116.40406      100.44331660        1.71936612
      116.50376      101.46729504        1.63311159
      116.60345      107.34562920        1.61276576
      116.70314      109.48236415        1.57944560
      116.80284      116.36743769        1.93526254
      116.90253      118.37276648        1.75592550
      117.00222      120.97022681        1.76120613
      117.10192      124.64247970        1.83587281
      117.20161      131.20978297        1.90698603
      117.30131      128.54028860        2.25839663
      117.40100      132.68711142        1.92929937
      117.50069      134.34629762        1.84389952
      117.60039      141.30612708        1.81019022
      117.70008      146.62965525        1.78673198
      117.79977      151.30886581        2.22447776
      117.89947      152.62770186        1.94230350
      117.99916      161.47786986        2.02227172
      118.09885      162.46332544        2.06653607
      118.19855      159.29183232        2.14299620
      118.29824      166.88405115        2.40525877
      118.39793      163.75601947        2.16298897
      118.49763      166.66196065        2.05930827
      118.59732      178.11273321        2.05620845
      118.69701      177.85304283        2.14045609
      118.79671      177.72804572        2.31037431
      118.89640      177.23500180        2.15106063
      118.99609      175.42389069        2.13761704
      119.09579      178.18603366        2.17970150
      119.19548      179.44208437        2.39016022
      119.29517      178.92815989        2.47959275
      119.39487      176.17952991        2.26161102
      119.49456      175.89917892        2.12954828
      119.59425      168.58709634        2.02416941
      119.69395      168.48526441        2.13486872
      119.79364      165.44185189        2.13774852
      119.89333      160.59696003        2.03809026
      119.99303      155.42636472        1.95725271
      120.09272      149.52756196        1.96310060
      120.19241      143.03657477        2.15764918
      120.29211      142.97839420        2.13521044
      120.39180      139.13553915        2.00925139
      120.49149      133.95273526        1.83323739
      120.59119      130.46564002        1.75583065
      120.69088      124.98722211        1.84969526
      120.79057      128.30159251        1.83404115
      120.89027      117.94957974        1.72580689
      120.98996      121.17695615        1.73601132
      121.08966      121.06777229        1.74821235
      121.18935      119.63423054        1.99190495
      121.28904      120.53364193        1.94875530
      121.38874      118.28138311        1.82538565
      121.48843      115.55214712        1.70392239
      121.58812      114.86828207        1.62025752
      121.68782      115.37881110        1.79898701
      121.78751      115.23525937        1.71318576
      121.88720      114.12275643        1.68303252
      121.98690      112.08198436        1.68029335
      122.08659      112.31872787        1.71576624
      122.18628      109.39573066        1.96411918
      122.28598      113.63694035        1.88278070
      122.38567      109.97928000        1.77371877
      122.48536      109.52622757        1.67433374
      122.58506      112.98217438        1.61078965
      122.68475      109.10190176        1.79345317
      122.78444      112.29412712        1.71345283
      122.88414      107.99726793        1.66583627
      122.98383      104.86565519        1.67495673
      123.08352      106.36561723        1.67255674
      123.18322      102.61341927        1.91576224
      123.28291      101.83206336        1.73444633
      123.38260      104.19002194        1.69378826
      123.48230      101.52461314        1.61132720
      123.58199      100.16759235        1.49589388
      123.68168       96.78936686        1.67773990
      123.78138       93.82345532        1.49013839
      123.88107       96.56261248        1.47692310
      123.98076       89.86880057        1.45082911
      124.08046       89.27591041        1.43076997
      124.18015       87.38758933        1.60210899
      124.27984       88.97917443        1.44847814
      124.37954       87.37511377        1.35437777
      124.47923       82.47623987        1.28439349
      124.57893       79.53556539        1.34363488
