        5.04651       55.58892181        2.54207372
        5.14621       53.38128282        2.40060159
        5.24590       56.57724969        2.43625306
        5.34559       55.49565920        2.21289985
        5.44529       54.63637046        2.38865070
        5.54498       50.89498429        1.93900902
        5.64467       50.84057521        1.92102996
        5.74437       51.07010288        1.73801408
        5.84406       51.18737920        1.76089128
        5.94375       52.84337904        1.78685465
        6.04345       47.03493003        1.63772833
        6.14314       49.76997583        1.54265491
        6.24283       50.56304922        1.60627008
        6.34253       51.16298103        1.54114517
        6.44222       50.50390011        1.61224668
        6.54191       47.13817236        1.47540976
        6.64161       49.07939406        1.42629960
        6.74130       47.33277226        1.40626143
        6.84099       48.01411495        1.40612584
        6.94069       49.32975893        1.44678902
        7.04038       50.80346384        1.35536296
        7.14007       46.44005888        1.29296622
        7.23977       49.71391046        1.31452737
        7.33946       47.29918856        1.30172138
        7.43915       46.74048181        1.27710007
        7.53885       50.50598788        1.30322554
        7.63854       45.24021026        1.17865486
        7.73823       48.33211348        1.26513623
        7.83793       51.57649560        1.26485557
        7.93762       48.07492449        1.27369369
        8.03732       47.08589854        1.13043165
        8.13701       47.35010464        1.12849221
        8.23670       48.29916773        1.15586668
        8.33640       47.27836722        1.14385976
        8.43609       45.30638828        1.17057140
        8.53578       47.46934286        1.11612683
        8.63548       48.84205818        1.11919140
        8.73517       45.25457605        1.05663845
        8.83486       48.70092430        1.09893714
        8.93456       47.69199784        1.08187045
        9.03425       47.43384428        1.04733442
        9.13394       46.25156066        1.03610361
        9.23364       49.43634932        1.08694422
        9.33333       47.80988894        1.09061511
        9.43302       46.77880134        1.07915287
        9.53272       45.74774156        1.03110048
        9.63241       48.60387074        1.09295046
        9.73210       46.34717827        1.06505187
        9.83180       47.53417260        1.12394483
        9.93149       47.25888247        1.11265280
       10.03118       42.97603170        1.02076753
       10.13088       47.69995419        1.04981243
       10.23057       47.18617246        1.09341090
       10.33026       48.86605042        1.15023582
       10.42996       48.76621055        1.13331244
       10.52965       49.05803521        1.10085024
       10.62934       46.78600099        1.07755270
       10.72904       47.79022276        1.10520122
       10.82873       45.10178028        1.06815307
       10.92842       46.32371555        1.10071861
       11.02812       47.49304132        1.06186345
       11.12781       49.70647463        1.12538024
       11.22750       48.61981512        1.12405666
       11.32720       50.60995567        1.17776085
       11.42689       51.68277247        1.14892878
       11.52658       51.12696683        1.12909320
       11.62628       54.08180172        1.17398474
       11.72597       58.26028602        1.24455709
       11.82567       58.01587690        1.27646878
       11.92536       61.00116662        1.22502064
       12.02505       65.48038357        1.27531002
       12.12475       72.97994629        1.34549255
       12.22444       79.56920858        1.49007173
       12.32413       89.45700232        1.60451191
       12.42383      100.39707923        1.61386399
       12.52352      115.79613343        1.72317888
       12.62321      136.38634046        1.92413328
       12.72291      156.77347683        2.00819433
       12.82260      183.00732179        2.35977047
       12.92229      205.84707771        2.27384170
       13.02199      229.65840945        2.38341072
       13.12168      258.58937687        2.57396032
       13.22137      289.62175643        2.81339848
       13.32107      306.48293675        2.98692839
       13.42076      342.20135636        3.03976824
       13.52045      357.75547647        3.14544501
       13.62015      362.15134402        3.06705423
       13.71984      345.32823317        3.12050782
       13.81953      319.24469197        3.05061849
       13.91923      281.33800332        2.68929072
       14.01892      222.01240007        2.32459463
       14.11861      172.80151351        2.13898784
       14.21831      129.97050068        1.85591961
       14.31800      109.48494846        1.79320075
       14.41769       83.73390788        1.50964550
       14.51739       69.41554915        1.34074012
       14.61708       59.79203845        1.24726401
       14.71677       56.33348455        1.23037371
       14.81647       52.10125453        1.23941281
       14.91616       51.43119407        1.13242481
       15.01585       49.29782690        1.12859888
       15.11555       49.90703550        1.14873822
       15.21524       51.06244233        1.19762645
       15.31493       48.53463620        1.19565667
       15.41463       47.96761989        1.15086188
       15.51432       47.79541628        1.11319238
       15.61402       48.27005587        1.14705347
       15.71371       48.12615146        1.13746937
       15.81340       47.51299911        1.17571375
       15.91310       47.68981011        1.14452056
       16.01279       45.31658723        1.06816261
       16.11248       46.85057008        1.11531701
       16.21218       48.11542044        1.16164627
       16.31187       46.92896037        1.14999164
       16.41156       47.77803000        1.13877594
       16.51126       46.13722119        1.13790657
       16.61095       47.23810019        1.11025802
       16.71064       48.83840465        1.16466497
       16.81034       49.47298270        1.17578071
       16.91003       51.99250836        1.17069099
       17.00972       54.55804931        1.15135493
       17.10942       56.57382876        1.23927239
       17.20911       58.54160465        1.27184604
       17.30880       64.84028049        1.35041606
       17.40850       67.07869831        1.37328255
       17.50819       71.92954778        1.38104770
       17.60788       75.80840365        1.46200320
       17.70758       73.26300552        1.44304041
       17.80727       72.29166949        1.45109077
       17.90696       69.83712171        1.33339642
       18.00666       68.06874932        1.33944704
       18.10635       62.32394290        1.24642098
       18.20604       59.13928076        1.33182753
       18.30574       54.88756573        1.22266754
       18.40543       54.75235108        1.19094569
       18.50512       55.29937598        1.23467995
       18.60482       54.11325003        1.20216133
       18.70451       48.98368724        1.20846682
       18.80420       51.43833834        1.16346737
       18.90390       51.28118989        1.14928125
       19.00359       48.69736024        1.09057862
       19.10328       48.47107063        1.15112645
       19.20298       46.72645802        1.16531717
       19.30267       47.46137761        1.12787304
       19.40237       46.52836942        1.10405680
       19.50206       45.38853259        1.11782059
       19.60175       44.96746818        1.10013126
       19.70145       45.03521461        1.15446119
       19.80114       44.94234939        1.09380409
       19.90083       44.14180329        1.04735527
       20.00053       46.19369775        1.09051126
       20.10022       46.24463873        1.09921817
       20.19991       47.79575708        1.19479813
       20.29961       47.36454069        1.12694203
       20.39930       48.43214257        1.17404147
       20.49899       49.11030489        1.16172146
       20.59869       51.36073870        1.20985846
       20.69838       52.83827996        1.27245583
       20.79807       52.33306243        1.20783043
       20.89777       53.12632617        1.18945212
       20.99746       52.68609514        1.19627265
       21.09715       56.43602901        1.30430041
       21.19685       55.82653346        1.29044913
       21.29654       59.82451896        1.30330502
       21.39623       55.23236030        1.25214833
       21.49593       55.45033190        1.23669412
       21.59562       53.31536174        1.24176020
       21.69531       49.81428099        1.24831294
       21.79501       51.44885250        1.16060898
       21.89470       47.08273281        1.08512091
       21.99439       44.47900985        1.09930563
       22.09409       47.88290443        1.14355769
       22.19378       45.14045871        1.17904282
       22.29347       46.07822784        1.10947910
       22.39317       45.03799196        1.12525844
       22.49286       46.60091873        1.14376465
       22.59255       47.93578458        1.17372543
       22.69225       49.95597704        1.26275754
       22.79194       50.58831418        1.14125421
       22.89163       52.58168631        1.14085275
       22.99133       57.98002391        1.23144093
       23.09102       60.56958973        1.30727099
       23.19072       65.75451057        1.36553722
       23.29041       65.74607084        1.34844811
       23.39010       67.08992364        1.37649485
       23.48980       64.70037295        1.35655276
       23.58949       63.76248738        1.36469874
       23.68918       61.03394949        1.40389252
       23.78888       54.79464743        1.18521380
       23.88857       52.15908803        1.17138199
       23.98826       50.35132446        1.17653684
       24.08796       46.39721961        1.10723616
       24.18765       47.04006435        1.19462943
       24.28734       44.70157090        1.10868069
       24.38704       45.45766851        1.13673392
       24.48673       44.11484988        1.11576104
       24.58642       44.36813994        1.15599418
       24.68612       45.41730825        1.16808003
       24.78581       42.21770110        1.03803315
       24.88550       44.32910482        1.06331920
       24.98520       45.17425549        1.11314629
       25.08489       47.82970662        1.16837545
       25.18458       48.33762700        1.19925736
       25.28428       46.69778121        1.13602808
       25.38397       49.47287681        1.16373004
       25.48366       51.16228692        1.19058339
       25.58336       54.95804965        1.28632227
       25.68305       59.27721319        1.31040534
       25.78274       67.81897464        1.32319867
       25.88244       83.65664213        1.50731929
       25.98213      102.50516807        1.68280528
       26.08182      126.55898921        1.91983075
       26.18152      150.43908383        2.14465074
       26.28121      176.11021818        2.19592943
       26.38090      196.03088290        2.33729416
       26.48060      196.18944412        2.40266365
       26.58029      185.18730919        2.43474084
       26.67998      169.42460103        2.19913351
       26.77968      148.49803180        2.03392175
       26.87937      116.31778140        1.77322396
       26.97907       93.79056245        1.57833996
       27.07876       79.60486028        1.56521556
       27.17845       76.37554576        1.46505060
       27.27815       80.36504226        1.46780838
       27.37784       82.28228730        1.54314756
       27.47753       84.32105128        1.53916379
       27.57723       85.67224257        1.62529724
       27.67692       85.87829390        1.58836233
       27.77661       77.15613067        1.43661065
       27.87631       70.06820296        1.34606061
       27.97600       62.84485364        1.30329935
       28.07569       55.16538478        1.29208293
       28.17539       50.72033513        1.18591728
       28.27508       48.19332848        1.15641983
       28.37477       50.59329345        1.21317030
       28.47447       48.69226536        1.18078549
       28.57416       49.91044206        1.29249679
       28.67385       51.51981292        1.16836658
       28.77355       53.98832822        1.17454254
       28.87324       53.94271336        1.20530651
       28.97293       56.46186542        1.23611307
       29.07263       59.62694485        1.38483007
       29.17232       57.62316850        1.24227489
       29.27201       57.30104887        1.26167612
       29.37171       56.52223149        1.28902034
       29.47140       51.97301187        1.22160547
       29.57109       48.66088377        1.25329593
       29.67079       48.78511692        1.14245192
       29.77048       47.69807955        1.13223001
       29.87017       48.62639013        1.12079341
       29.96987       45.89524595        1.14159413
       30.06956       45.77866580        1.17626108
       30.16925       46.79831790        1.11982859
       30.26895       46.64020870        1.12219966
       30.36864       47.09341760        1.14608447
       30.46833       51.12260483        1.20637567
       30.56803       50.31151322        1.26414294
       30.66772       55.68784437        1.23786195
       30.76742       58.33048410        1.24163305
       30.86711       63.54918185        1.32204003
       30.96680       63.29587013        1.32700819
       31.06650       65.66484881        1.41735633
       31.16619       62.37422145        1.29868914
       31.26588       59.62597219        1.26201454
       31.36558       57.79763509        1.25871135
       31.46527       57.32682012        1.30433895
       31.56496       60.81759502        1.36520289
       31.66466       60.86367353        1.27719346
       31.76435       72.10221849        1.38918356
       31.86404       81.42451611        1.45724783
       31.96374       82.24677429        1.49852434
       32.06343       89.10729693        1.61448047
       32.16312       89.33455079        1.51922238
       32.26282       83.33842541        1.50295035
       32.36251       76.95903524        1.50181634
       32.46220       74.06302946        1.49964069
       32.56190       68.23486994        1.46471399
       32.66159       64.73472702        1.35467662
       32.76128       67.08710037        1.34825315
       32.86098       64.43004835        1.34100501
       32.96067       62.87935213        1.34129507
       33.06036       60.58049882        1.34046366
       33.16006       58.60332608        1.24153475
       33.25975       56.30261866        1.25635267
       33.35944       55.08556209        1.24938080
       33.45914       55.87667228        1.30621881
       33.55883       54.08460600        1.28802652
       33.65852       57.79619832        1.24174717
       33.75822       65.00860562        1.31494888
       33.85791       73.02413810        1.39962831
       33.95760       82.93876154        1.53605104
       34.05730       89.25298277        1.57810193
       34.15699      104.42662118        1.68042572
       34.25668      123.32004637        1.82045766
       34.35638      151.48004842        2.07082795
       34.45607      187.81300381        2.42973523
       34.55577      228.83537264        2.55669820
       34.65546      289.64862982        2.76004782
       34.75515      365.53901625        3.16200006
       34.85485      430.41210211        3.40738148
       34.95454      444.32801533        3.57032837
       35.05423      434.34907875        3.65075895
       35.15393      386.75600962        3.23359065
       35.25362      316.22922813        2.96776392
       35.35331      243.22935011        2.66869225
       35.45301      187.69131602        2.44513009
       35.55270      142.19396998        2.07111714
       35.65239      107.14546828        1.73540299
       35.75209       86.58522575        1.54801809
       35.85178       78.34251463        1.47027535
       35.95147       73.78328258        1.46029866
       36.05117       68.93846879        1.38230663
       36.15086       65.15016507        1.29196286
       36.25055       61.50125830        1.31131125
       36.35025       61.69558855        1.33912918
       36.44994       58.25320801        1.32709494
       36.54963       59.13423528        1.28359854
       36.64933       57.15666670        1.24303803
       36.74902       55.42399361        1.23676863
       36.84871       55.62460708        1.23007557
       36.94841       49.76073628        1.25792435
       37.04810       50.36392189        1.11589839
       37.14779       50.87605748        1.14457675
       37.24749       50.43905043        1.17133438
       37.34718       47.55320389        1.16622620
       37.44687       49.75625364        1.28154765
       37.54657       48.22457476        1.15175811
       37.64626       46.56774659        1.12739447
       37.74595       47.44947670        1.12025906
       37.84565       48.05660758        1.19292010
       37.94534       48.24253386        1.21763988
       38.04503       47.00357869        1.08626323
       38.14473       46.33021148        1.08899711
       38.24442       49.84508917        1.15033737
       38.34412       48.25970590        1.18331497
       38.44381       51.32844806        1.31970550
       38.54350       49.96153584        1.16057505
       38.64320       50.61628976        1.16464123
       38.74289       50.58865755        1.17955011
       38.84258       54.32871645        1.22549245
       38.94228       55.90831475        1.30400386
       39.04197       57.86468464        1.19630131
       39.14166       62.49026181        1.29343166
       39.24136       66.11476582        1.32697250
       39.34105       69.71892382        1.41034051
       39.44074       69.82348402        1.53950215
       39.54044       73.33600034        1.41089328
       39.64013       70.29037755        1.37692739
       39.73982       67.85099688        1.35820258
       39.83952       62.88425345        1.29850061
       39.93921       61.72234506        1.36400330
       40.03890       57.30804752        1.20290244
       40.13860       57.65191506        1.20496427
       40.23829       57.26563950        1.24339048
       40.33798       54.98970344        1.25631283
       40.43768       55.76467934        1.32371140
       40.53737       55.78227764        1.22876921
       40.63706       56.07125750        1.25782673
       40.73676       57.73477202        1.27439627
       40.83645       59.99727192        1.31007548
       40.93614       62.65276001        1.36130663
       41.03584       67.89856244        1.33386365
       41.13553       77.96657031        1.43134018
       41.23522       91.21942035        1.58626449
       41.33492      117.09543627        1.88248537
       41.43461      136.49594632        2.09818303
       41.53430      159.53145765        2.12498866
       41.63400      185.60244304        2.34307393
       41.73369      206.69913404        2.41957658
       41.83338      211.95598550        2.51568935
       41.93308      218.66004192        2.53291659
       42.03277      227.06560844        2.35964423
       42.13247      244.31649520        2.57296695
       42.23216      292.56764641        2.82257194
       42.33185      358.72081369        3.35749968
       42.43155      411.16459615        3.54181825
       42.53124      483.37708190        3.72089211
       42.63093      533.60050432        3.91828027
       42.73063      545.67949926        3.97967771
       42.83032      537.62825016        4.02056149
       42.93001      492.13249459        3.70026939
       43.02971      430.94368285        3.27055938
       43.12940      334.15779129        2.93528438
       43.22909      253.93678199        2.68745500
       43.32879      189.65633358        2.44492632
       43.42848      148.95975868        2.11843406
       43.52817      107.61625350        1.72155539
       43.62787       87.33040033        1.54524004
       43.72756       73.70899582        1.45284372
       43.82725       66.21329736        1.43761293
       43.92695       60.38718610        1.24478865
       44.02664       58.15791038        1.21569547
       44.12633       56.98033610        1.24814188
       44.22603       57.11857630        1.30072954
       44.32572       54.21984746        1.33554360
       44.42541       54.98375192        1.28409887
       44.52511       53.92147900        1.23738429
       44.62480       55.84218713        1.27711641
       44.72449       57.36893123        1.25449539
       44.82419       60.12679257        1.44123264
       44.92388       65.81560499        1.25777857
       45.02357       73.70142695        1.34214694
       45.12327       87.61118676        1.50772411
       45.22296      107.05684285        1.71125496
       45.32265      124.29826366        2.04019987
       45.42235      153.36273508        2.06461440
       45.52204      178.53541087        2.20595725
       45.62174      205.74479548        2.41209142
       45.72143      225.91986531        2.52816816
       45.82112      234.83393987        2.82189577
       45.92082      245.26096875        2.44903706
       46.02051      236.57493879        2.45599433
       46.12020      230.39112934        2.43142550
       46.21990      211.16082764        2.44505584
       46.31959      195.17595374        2.53785801
       46.41928      176.80314784        2.23044238
       46.51898      149.39794314        2.06070325
       46.61867      117.41057745        1.81636182
       46.71836       95.76446789        1.68182443
       46.81806       82.31552928        1.61639550
       46.91775       69.88240338        1.29779526
       47.01744       61.56224197        1.24683709
       47.11714       64.99496289        1.31054399
       47.21683       67.58753758        1.37584130
       47.31652       72.30557563        1.55260390
       47.41622       87.71450082        1.61215979
       47.51591       99.77682351        1.72292857
       47.61560      119.17682523        1.86794104
       47.71530      134.83979446        2.00879235
       47.81499      145.23330716        2.13737504
       47.91468      163.58744098        1.98513597
       48.01438      177.10534183        2.06701585
       48.11407      179.51142072        2.15885671
       48.21376      174.32464421        2.22080620
       48.31346      176.01986706        2.31143856
       48.41315      160.86547110        2.05900971
       48.51284      144.97924338        2.01920747
       48.61254      122.43365522        1.84717885
       48.71223      102.63634244        1.72127924
       48.81192       89.66786220        1.60470583
       48.91162       71.96497293        1.28817025
       49.01131       63.19009332        1.24916828
       49.11100       56.94878037        1.22840231
       49.21070       54.12488864        1.25719834
       49.31039       52.40725374        1.27312456
       49.41009       52.30266290        1.20150413
       49.50978       50.82572882        1.20886460
       49.60947       50.41807498        1.21280312
       49.70917       47.86417197        1.22539359
       49.80886       49.02970949        1.20709433
       49.90855       49.34049063        1.10307694
       50.00825       49.83320653        1.13200546
       50.10794       52.57875326        1.18934902
       50.20763       50.29642580        1.21522841
       50.30733       54.10354506        1.32041221
       50.40702       53.82438833        1.23502740
       50.50671       54.39216558        1.24519514
       50.60641       56.49421596        1.27091976
       50.70610       57.03819407        1.31403561
       50.80579       56.84871614        1.29453101
       50.90549       57.21559647        1.17090449
       51.00518       54.53189037        1.15313970
       51.10487       57.70265825        1.22629252
       51.20457       54.13933699        1.26438803
       51.30426       57.46845789        1.29605847
       51.40395       56.42466352        1.23111398
       51.50365       57.78176721        1.26012018
       51.60334       58.82002724        1.29654738
       51.70303       61.59562018        1.40910949
       51.80273       61.39351654        1.29040271
       51.90242       60.25625296        1.19436914
       52.00211       61.47234223        1.21211803
       52.10181       64.02819618        1.27632779
       52.20150       61.01560356        1.37197408
       52.30119       60.05275468        1.31110748
       52.40089       63.05874527        1.32262339
       52.50058       59.52573307        1.30915149
       52.60027       59.40125762        1.32563852
       52.69997       59.81191664        1.45781520
       52.79966       59.87022647        1.22623038
       52.89935       62.78453195        1.21174442
       52.99905       74.64731260        1.34335844
       53.09874       85.68023635        1.48603364
       53.19844       99.39223695        1.83344472
       53.29813      109.88094640        1.71348738
       53.39782      120.53098371        1.85681597
       53.49752      135.94312444        1.98162143
       53.59721      142.01442185        2.02396732
       53.69690      150.49236725        2.28659214
       53.79660      151.29574393        1.92049771
       53.89629      150.99947558        1.89790656
       53.99598      145.71576426        1.90974103
       54.09568      139.87223098        1.95372562
       54.19537      123.15799962        1.99850515
       54.29506      114.75925725        1.77202176
       54.39476      102.76235060        1.68933869
       54.49445       98.09174686        1.65155824
       54.59414       88.93863750        1.59614428
       54.69384       87.63007373        1.69016922
       54.79353       85.69109087        1.43318589
       54.89322       83.71106298        1.41136039
       54.99292       79.64961080        1.41684146
       55.09261       72.41947969        1.40465017
       55.19230       71.38446904        1.49760833
       55.29200       65.48883579        1.33484973
       55.39169       62.44953046        1.34488217
       55.49138       58.33942841        1.29488693
       55.59108       54.45110743        1.29094738
       55.69077       56.16982044        1.34569182
       55.79046       54.40284568        1.15778769
       55.89016       53.90978445        1.14975561
       55.98985       57.86571257        1.19899650
       56.08954       60.12311001        1.26253096
       56.18924       64.23797760        1.40856699
       56.28893       71.65373192        1.36182639
       56.38862       83.06826462        1.51718840
       56.48832       96.57031209        1.66458097
       56.58801      105.45776103        1.79013050
       56.68770      111.51032715        1.90011397
       56.78740      115.28891348        1.65364917
       56.88709      115.82485958        1.67406805
       56.98679      107.71379119        1.61546805
       57.08648       94.85788575        1.60649568
       57.18617       86.64236585        1.58947600
       57.28587       74.74822671        1.37896197
       57.38556       65.80191576        1.37696669
       57.48525       60.10728546        1.34113306
       57.58495       59.01104787        1.35929909
       57.68464       56.26817625        1.33880506
       57.78433       51.56239570        1.12096658
       57.88403       52.05599944        1.13947013
       57.98372       51.53952105        1.15183677
       58.08341       52.36475362        1.25537028
       58.18311       53.31839574        1.29584554
       58.28280       54.52099988        1.23428291
       58.38249       52.68021856        1.26766825
       58.48219       52.65701536        1.29475531
       58.58188       52.35489203        1.30514098
       58.68157       54.04562052        1.29949105
       58.78127       53.42452351        1.13009331
       58.88096       55.83823398        1.13839001
       58.98065       55.20314630        1.17497029
       59.08035       56.75008190        1.27126649
       59.18004       57.35603339        1.29647085
       59.27973       60.12621850        1.25250759
       59.37943       63.73500336        1.33221061
       59.47912       68.51267456        1.43807296
       59.57881       71.95014688        1.54398102
       59.67851       77.66146008        1.49575002
       59.77820       82.48776205        1.41725381
       59.87789       90.87389641        1.48258303
       59.97759       99.37213161        1.62214708
       60.07728      104.92912011        1.80534737
       60.17697      105.15187505        1.72161321
       60.27667      111.45811151        1.72364182
       60.37636      110.50614329        1.74949817
       60.47605      107.08767782        1.79649865
       60.57575       99.15676021        1.89409842
       60.67544       91.05750101        1.55904073
       60.77514       87.16795075        1.45005087
       60.87483       78.63884321        1.35025554
       60.97452       69.90103928        1.34078749
       61.07422       67.83158823        1.48367995
       61.17391       66.90444180        1.27636815
       61.27360       65.67347234        1.30942039
       61.37330       66.49440731        1.36648356
       61.47299       68.66154748        1.44970845
       61.57268       71.30021551        1.68011088
       61.67238       70.71957321        1.36371265
       61.77207       70.35200339        1.32468260
       61.87176       69.68574067        1.30367538
       61.97146       70.15669684        1.35808221
       62.07115       67.03095782        1.50329928
       62.17084       67.62307192        1.32290845
       62.27054       67.19360633        1.37496972
       62.37023       64.62941902        1.40207289
       62.46992       65.02468229        1.45457523
       62.56962       64.10497739        1.62205811
       62.66931       68.05769513        1.34658720
       62.76900       75.31543691        1.38103427
       62.86870       80.35331721        1.39554222
       62.96839       88.45039592        1.51122394
       63.06808       98.68502385        1.77694308
       63.16778      106.72396086        1.64070615
       63.26747      113.20775423        1.74894665
       63.36716      116.94330873        1.84484367
       63.46686      122.72377637        1.94685767
       63.56655      124.98412793        2.08730251
       63.66624      136.09693464        1.85187924
       63.76594      149.34131991        1.88501984
       63.86563      163.25818951        1.96552583
       63.96532      175.42887860        2.13273802
       64.06502      171.69404108        2.25998955
       64.16471      174.04759530        2.10493374
       64.26440      159.30491182        2.09554821
       64.36410      146.83149048        2.05190531
       64.46379      130.36996084        2.04394398
       64.56349      114.73995835        1.95086806
       64.66318      104.10247874        1.62611310
       64.76287       85.26123486        1.45274467
       64.86257       70.69806850        1.32033059
       64.96226       62.91906435        1.30442464
       65.06195       61.01279249        1.38891145
       65.16165       53.96056709        1.17800252
       65.26134       55.14453578        1.21879093
       65.36103       52.16584242        1.23682834
       65.46073       53.82867636        1.29774175
       65.56042       55.78884030        1.37996496
       65.66011       56.41461816        1.21002754
       65.75981       58.05176121        1.21524925
       65.85950       59.30742086        1.22053155
       65.95919       60.79022393        1.29356943
       66.05889       66.19742657        1.39648715
       66.15858       70.87750805        1.37426995
       66.25827       76.39196870        1.47568452
       66.35797       89.13443114        1.66109828
       66.45766       99.94565964        1.86938121
       66.55735      107.77223576        1.94088199
       66.65705      125.25829675        1.85682805
       66.75674      140.53274048        1.91718085
       66.85643      158.12158433        2.01135403
       66.95613      165.53725935        2.14005011
       67.05582      168.83447672        2.17758450
       67.15551      167.89319906        2.06636869
       67.25521      161.87220858        2.12939319
       67.35490      150.96007074        2.16435949
       67.45459      133.39848039        2.14489548
       67.55429      123.39100217        1.97625335
       67.65398      103.94711085        1.62519927
       67.75367       88.85078164        1.48977395
       67.85337       81.80637845        1.44689496
       67.95306       75.17413614        1.48285301
       68.05275       78.63533630        1.43623563
       68.15245       80.70144679        1.44249361
       68.25214       87.49349350        1.59441750
       68.35184       94.94320995        1.73124969
       68.45153      102.94302636        1.98490554
       68.55122      110.32287916        1.77044625
       68.65092      116.29668557        1.69445452
       68.75061      124.51442269        1.77174917
       68.85030      127.75917968        1.82938148
       68.95000      126.28499061        2.06198990
       69.04969      125.81828393        1.73822226
       69.14938      113.53814934        1.69738574
       69.24908      103.36112864        1.72917655
       69.34877       91.91431710        1.68604965
       69.44846       80.05287024        1.82458118
       69.54816       74.53954787        1.37259837
       69.64785       67.82387579        1.29069071
       69.74754       59.85063860        1.22437580
       69.84724       55.96333929        1.21469232
       69.94693       52.14022793        1.32304291
       70.04662       50.51655411        1.07086675
       70.14632       48.28869564        1.08863964
       70.24601       46.55370908        1.14444014
       70.34570       46.43766544        1.20952219
       70.44540       47.00453467        1.43380346
       70.54509       49.12636311        1.14742346
       70.64478       48.74467300        1.14131642
       70.74448       49.47101113        1.16804254
       70.84417       50.49383221        1.22456840
       70.94386       52.61045674        1.37221996
       71.04356       53.11450229        1.14095509
       71.14325       51.36497884        1.16589186
       71.24294       55.40458395        1.27421190
       71.34264       51.11865186        1.29759641
       71.44233       53.31059910        1.47881024
       71.54202       54.03321120        1.21209944
       71.64172       56.59783040        1.20683216
       71.74141       52.93936116        1.14584821
       71.84110       52.20104351        1.17780237
       71.94080       54.74676369        1.31447750
       72.04049       52.49778545        1.08939729
       72.14019       51.12229509        1.12002520
       72.23988       52.16313662        1.18380797
       72.33957       53.34690056        1.33729658
       72.43927       54.00137062        1.48113238
       72.53896       53.05110674        1.17701376
       72.63865       53.02022311        1.15014137
       72.73835       55.77271288        1.15378609
       72.83804       56.84630116        1.23007253
       72.93773       59.78720529        1.34011795
       73.03743       59.63033251        1.16170234
       73.13712       63.38363387        1.26323690
       73.23681       63.07118288        1.32385467
       73.33651       64.15785939        1.46925841
       73.43620       63.19258902        1.57934468
       73.53589       63.80794095        1.28025642
       73.63559       64.08994239        1.26294664
       73.73528       64.68510992        1.26305881
       73.83497       67.03766576        1.36329597
       73.93467       63.81717335        1.40048935
       74.03436       63.98031296        1.24101915
       74.13405       63.58319646        1.28974229
       74.23375       65.14642786        1.35994115
       74.33344       62.15486697        1.46217653
       74.43313       63.18746433        1.52985109
       74.53283       65.71516189        1.32568265
       74.63252       64.20239406        1.30076798
       74.73221       70.59179676        1.35758809
       74.83191       73.23178433        1.46692571
       74.93160       77.20904575        1.52339457
       75.03129       80.61723556        1.38403993
       75.13099       84.57535253        1.46850654
       75.23068       90.34789801        1.58340793
       75.33037       97.33258764        1.80685587
       75.43007       98.83447688        1.84699448
       75.52976      109.07208980        1.68577656
       75.62945      121.22558710        1.77624750
       75.72915      128.95448281        1.82506766
       75.82884      132.91127653        1.99504401
       75.92854      139.12758480        1.91645616
       76.02823      146.49299017        1.84471797
       76.12792      151.64147621        1.96197861
       76.22762      151.33737257        2.06786653
       76.32731      151.34650819        2.33548050
       76.42700      152.41710357        2.21214278
       76.52670      145.25838303        1.99183201
       76.62639      139.26178831        1.92529982
       76.72608      131.49439942        1.83939246
       76.82578      126.38065989        2.07756461
       76.92547      123.05558471        1.64188882
       77.02516      119.12357910        1.67411174
       77.12486      122.19406086        1.78132338
       77.22455      125.75437659        1.92434259
       77.32424      130.36886322        2.40742062
       77.42394      135.99147009        1.96361359
       77.52363      134.72509587        1.88851963
       77.62332      140.97008857        1.92331938
       77.72302      145.00143475        1.95525004
       77.82271      146.12262001        2.30190800
       77.92240      151.16881725        1.79314013
       78.02210      151.31714391        1.93582713
       78.12179      143.25904827        2.01121757
       78.22148      142.30516866        2.11968473
       78.32118      135.55764838        2.40007300
       78.42087      130.98803938        1.85657172
       78.52056      123.56601132        1.86173616
       78.62026      119.20030437        1.81402616
       78.71995      106.29118933        1.71804901
       78.81964       99.62504584        1.85754507
       78.91934       92.80548448        1.38894619
       79.01903       81.76456853        1.42884518
       79.11872       71.89924079        1.39399483
       79.21842       67.65331640        1.44231513
       79.31811       65.90648745        1.60345894
       79.41780       64.45499348        1.28626932
       79.51750       63.52277169        1.29746200
       79.61719       63.67351828        1.30283015
       79.71689       63.18347004        1.34740746
       79.81658       62.69010206        1.42270127
       79.91627       65.23495276        1.23029823
       80.01597       63.95727634        1.25206615
       80.11566       64.24400905        1.31180754
       80.21535       65.47686852        1.41571242
       80.31505       64.58434348        1.67137960
       80.41474       65.58761837        1.29429674
       80.51443       67.53177015        1.30767529
       80.61413       70.06831378        1.37629609
       80.71382       76.75704891        1.49046490
       80.81351       80.59544554        1.71636125
       80.91321       88.95475685        1.33002274
       81.01290      106.36334640        1.57077063
       81.11259      125.86937067        1.84522589
       81.21229      139.36875609        2.10068373
       81.31198      153.03410341        2.45613975
       81.41167      171.54607885        2.03678468
       81.51137      197.38772936        2.24886539
       81.61106      205.94729801        2.39859876
       81.71075      227.86201073        2.61258847
       81.81045      236.29302119        2.81883148
       81.91014      260.10616444        2.27530062
       82.00983      275.54591641        2.50378889
       82.10953      288.04575687        2.86450630
       82.20922      296.78836292        3.23431006
       82.30891      298.96178066        3.40379823
       82.40861      297.68359148        2.76184014
       82.50830      296.76326885        2.75035115
       82.60799      293.57795107        2.94644799
       82.70769      286.31864931        3.16584875
       82.80738      293.63062459        3.06403147
       82.90707      285.85991842        2.45443260
       83.00677      273.44772252        2.55706317
       83.10646      261.62190869        2.94228518
       83.20615      253.36995648        3.22264369
       83.30585      242.27146118        2.98480949
       83.40554      219.82292373        2.36263238
       83.50524      199.62977091        2.19610964
       83.60493      184.44569441        2.32503877
       83.70462      171.00661238        2.52391242
       83.80432      154.00295102        2.09242774
       83.90401      127.40749952        1.59551139
       84.00370      107.57080910        1.52845153
       84.10340       91.60340990        1.68483367
       84.20309       83.78760952        1.95590026
       84.30278       79.23935657        1.54678074
       84.40248       74.43273280        1.32293825
       84.50217       69.45570776        1.25353031
       84.60186       64.16446463        1.36212780
       84.70156       65.44666621        1.80026863
       84.80125       64.70654514        1.24623942
       84.90094       66.05833921        1.13120674
       85.00064       62.97604265        1.13784152
       85.10033       62.78373448        1.34454053
       85.20002       63.92053904        2.32689960
       85.29972       65.37810836        1.24143358
       85.39941       67.76677828        1.28872179
       85.49910       66.48960946        1.24132672
       85.59880       67.75708122        1.40913153
       85.69849       69.72928637        2.56661214
       85.79818       67.02116224        1.18622241
       85.89788       66.45643753        1.15296843
       85.99757       62.72275231        1.15076658
       86.09726       64.64228781        1.34140575
       86.19696       65.93899827        2.60220471
       86.29665       63.21400869        1.20560727
       86.39634       63.48252226        1.22914438
       86.49604       60.50252996        1.18167738
       86.59573       57.32164352        1.22537992
       86.69542       61.22508167        2.64818169
       86.79512       56.01819606        1.05130890
       86.89481       54.25405477        1.01997945
       86.99451       52.08979449        1.03587145
       87.09420       54.89074570        1.18604918
       87.19389       54.09647309        2.78901046
       87.29359       51.77679998        1.10572098
       87.39328       52.53148675        1.12882767
       87.49297       48.73430942        1.05534471
       87.59267       49.54188163        1.08500744
       87.69236       45.00281682        3.09386227
       87.79205       50.97226665        1.02592246
       87.89175       49.14642702        0.99920592
       87.99144       50.72114122        1.05779410
       88.09113       52.31877716        1.14194206
       88.19083       48.25575405        5.80263684
       88.29052       51.05854960        1.13516324
       88.39021       49.55689639        1.12574067
       88.48991       49.40170578        1.07869369
       88.58960       49.65212797        1.04727512
       88.68929       49.13277966        8.07020360
       88.78899       47.78436817        0.99160590
       88.88868       48.88122022        0.98105581
       88.98837       50.21735304        1.03428927
       89.08807       51.31999551        1.07100512
       89.18776       41.63432044        7.84632638
       89.28745       49.94227739        1.07339503
       89.38715       51.53280856        1.10161472
       89.48684       55.12312488        1.11510610
       89.58653       56.33817644        1.10447177
       89.68623       68.57943568        9.88295529
       89.78592       60.46078956        1.11192337
       89.88561       61.94210779        1.10342279
       89.98531       64.14330460        1.15145425
       90.08500       72.38884046        1.26901176
       90.18469       72.48949594       10.59107957
       90.28439       76.35286690        1.33122514
       90.38408       82.70232503        1.40901135
       90.48377       87.47882704        1.42212202
       90.58347       90.76120683        1.42591514
       90.68316      104.24709384       11.90939716
       90.78286       92.52317148        1.37818487
       90.88255       94.47628596        1.35518781
       90.98224       99.65276777        1.44027625
       91.08194      101.39623546        1.50057646
       91.18163      103.22233900       12.08227334
       91.28132       98.54628929        1.52296909
       91.38102       98.15349602        1.56024626
       91.48071       95.72773376        1.50290922
       91.58040       90.28866013        1.41133998
       91.68010       97.07007701       11.07361227
       91.77979       88.24611820        1.33933137
       91.87948       84.07249317        1.28690383
       91.97918       78.60558241        1.29190609
       92.07887       74.65467049        1.31132029
       92.17856       82.88839142       10.50897308
       92.27826       75.67958931        1.36364244
       92.37795       78.53582660        1.42223352
       92.47764       73.77655306        1.30835977
       92.57734       77.72812793        1.30297244
       92.67703       88.72206399        9.03979420
       92.77672       76.95422967        1.24949937
       92.87642       82.98009719        1.27298998
       92.97611       86.20343265        1.35497924
       93.07580       90.83361726        1.58770794
       93.17550       86.93888560        2.92041008
       93.27519       89.70853251        1.45427676
       93.37488       92.95335224        1.43916323
       93.47458       98.47826316        1.49789315
       93.57427      101.20282556        1.75571141
       93.67396       99.20440071        2.34898633
       93.77366       97.81385273        1.44485053
       93.87335       98.59785632        1.38567294
       93.97304       94.07596948        1.41032395
       94.07274       93.33219803        1.82372054
       94.17243       92.54610155        2.07206248
       94.27212       89.48308856        1.51738776
       94.37182       90.94118546        1.49092068
       94.47151       87.74946435        1.40238389
       94.57121       88.17001926        1.85527388
       94.67090       82.86990382        1.81913895
       94.77059       83.69845009        1.42124097
       94.87029       76.85034902        1.23809414
       94.96998       70.56644144        1.20116562
       95.06967       68.57363434        1.36490237
       95.16937       67.35340080        1.85164345
       95.26906       63.43827774        1.38805553
       95.36875       64.93089565        1.27431884
       95.46845       62.39439381        1.20041171
       95.56814       59.55048239        1.34932475
       95.66783       57.63787294        1.49126265
       95.76753       56.54865834        1.22058126
       95.86722       54.20068240        1.01638143
       95.96691       53.48574637        1.04724159
       96.06661       53.60186441        1.34299923
       96.16630       51.96491474        1.41005227
       96.26599       50.78206365        1.25177129
       96.36569       49.87774133        1.11310727
       96.46538       49.21214620        1.06703016
       96.56507       46.69208706        1.28271641
       96.66477       45.82818814        1.23826072
       96.76446       47.41539554        1.12559419
       96.86415       48.79172828        0.98908040
       96.96385       49.49892961        1.02896791
       97.06354       48.15187487        1.37224728
       97.16323       47.36148251        1.30123601
       97.26293       48.35835770        1.23535306
       97.36262       49.89040342        1.16201891
       97.46231       47.34295060        1.04129283
       97.56201       49.91827248        1.36045563
       97.66170       49.54461071        1.21734559
       97.76139       52.68974029        1.14063340
       97.86109       52.52809695        1.02982744
       97.96078       53.56210141        1.06266885
       98.06047       57.26352881        1.52637479
       98.16017       56.39288192        1.34649456
       98.25986       56.31584304        1.28525947
       98.35956       56.19820082        1.21212730
       98.45925       62.81675242        1.19644295
       98.55894       62.44150066        1.55601856
       98.65864       64.09518726        1.35272533
       98.75833       67.90506684        1.30113607
       98.85802       66.97501321        1.20650353
       98.95772       72.50058676        1.24715005
       99.05741       72.12270989        1.72680869
       99.15710       73.22929616        1.49645759
       99.25680       76.93602948        1.48621412
       99.35649       77.68663753        1.42242966
       99.45618       80.42932405        1.34890106
       99.55588       85.01240147        1.85331804
       99.65557       85.56503175        1.53395609
       99.75526       83.90077616        1.42359299
       99.85496       85.80681635        1.37033982
       99.95465       86.16269029        1.34625338
      100.05434       82.84650761        1.88035668
      100.15404       84.81699076        1.60264769
      100.25373       85.88468828        1.59344949
      100.35342       86.53279594        1.59323542
      100.45312       85.14042054        1.44201494
      100.55281       86.59310345        1.91014235
      100.65250       81.57384340        1.51007883
      100.75220       80.64213648        1.39070317
      100.85189       78.59161228        1.31172263
      100.95158       79.17042728        1.28139478
      101.05128       82.99198917        1.87070878
      101.15097       76.69761207        1.48598389
      101.25066       76.45425952        1.46582572
      101.35036       77.40586403        1.48775563
      101.45005       76.69885214        1.39259298
      101.54974       73.44812607        1.69717229
      101.64944       75.10622213        1.40030524
      101.74913       73.66817389        1.30663176
      101.84882       77.33220915        1.30331597
      101.94852       78.04619170        1.37922642
      102.04821       77.25530058        1.65275093
      102.14791       81.87420058        1.53363759
      102.24760       81.97698830        1.52164593
      102.34729       83.09976205        1.52583879
      102.44699       82.46595968        1.54640172
      102.54668       83.72953806        1.63512730
      102.64637       83.15558684        1.45532581
      102.74607       84.23904797        1.39505904
      102.84576       85.99246059        1.38282388
      102.94545       87.90080696        1.59245425
      103.04515       87.08256855        1.67790067
      103.14484       86.50509509        1.56243347
      103.24453       82.20902473        1.49941676
      103.34423       86.36722157        1.52465196
      103.44392       87.25092769        1.66002686
      103.54361       86.41669823        1.60485354
      103.64331       87.79057307        1.47248177
      103.74300       86.99619342        1.39814138
      103.84269       86.00662920        1.36605476
      103.94239       86.12020361        1.64270500
      104.04208       82.64964268        1.55667277
      104.14177       83.30189810        1.52050278
      104.24147       86.36229932        1.54756055
      104.34116       81.78876728        1.51513209
      104.44085       79.77872292        1.69942509
      104.54055       81.64280409        1.55661745
      104.64024       78.73861043        1.43680474
      104.73993       76.95039458        1.35534689
      104.83963       72.61769271        1.26830334
      104.93932       69.81827122        1.50748158
      105.03901       69.58484636        1.41803310
      105.13871       70.53804424        1.37475998
      105.23840       70.58293775        1.37440987
      105.33809       69.18782354        1.36872459
      105.43779       68.30885897        1.58236932
      105.53748       65.57641133        1.39024809
      105.63717       64.77066666        1.26643649
      105.73687       63.86785698        1.19678043
      105.83656       60.51617588        1.13502428
      105.93626       58.12273423        1.40950894
      106.03595       58.06870916        1.27687983
      106.13564       58.57139795        1.23947789
      106.23534       56.27744271        1.22982523
      106.33503       54.03250980        1.21712402
      106.43472       54.04035534        1.43902342
      106.53442       51.55901643        1.22248881
      106.63411       52.30209893        1.11851337
      106.73380       53.88405974        1.08211105
      106.83350       54.80803404        1.07509085
      106.93319       55.65843114        1.40447171
      107.03288       53.43603398        1.21956280
      107.13258       56.37619091        1.21601096
      107.23227       56.75284523        1.23778969
      107.33196       54.76803405        1.21253025
      107.43166       58.39207116        1.50452968
      107.53135       57.70951853        1.29046615
      107.63104       58.54578011        1.18356684
      107.73074       60.01733551        1.14976868
      107.83043       61.67694517        1.15089101
      107.93012       64.50372718        1.55712980
      108.02982       65.38488472        1.37221224
      108.12951       63.60675777        1.28697126
      108.22920       66.31002154        1.29308772
      108.32890       66.52694939        1.28286252
      108.42859       68.07293055        1.64705055
      108.52828       66.73784096        1.38327456
      108.62798       66.47348641        1.25179429
      108.72767       66.41647165        1.20099695
      108.82736       68.83616345        1.24972547
      108.92706       67.44392136        1.56660362
      109.02675       67.42617571        1.37033436
      109.12644       65.31998613        1.31631258
      109.22614       66.41864084        1.32843221
      109.32583       66.39861123        1.44735873
      109.42552       67.49858000        1.53934596
      109.52522       64.73544263        1.35993729
      109.62491       66.23906752        1.30853544
      109.72461       62.29910424        1.21308934
      109.82430       62.56069995        1.13557238
      109.92399       60.80816089        1.45553827
      110.02369       60.45204138        1.27087195
      110.12338       57.66594128        1.23303201
      110.22307       60.03213913        1.24876388
      110.32277       58.83940650        1.26240611
      110.42246       59.15031097        1.53900846
      110.52215       57.63073625        1.28656410
      110.62185       57.75714003        1.21386674
      110.72154       56.54380775        1.12047323
      110.82123       53.97948654        1.13053617
      110.92093       56.28413535        1.34653740
      111.02062       55.65558259        1.23701106
      111.12031       55.71410296        1.24690497
      111.22001       55.08342032        1.21657433
      111.31970       55.46776306        1.32493550
      111.41939       57.76754135        1.39924769
      111.51909       55.79974206        1.24774800
      111.61878       59.16199340        1.21043797
      111.71847       61.10697106        1.14461440
      111.81817       63.64856753        1.26799336
      111.91786       65.62893503        1.35510058
      112.01755       66.98038657        1.33679630
      112.11725       69.94579271        1.37655779
      112.21694       71.64616578        1.38701559
      112.31663       74.68814765        1.56069922
      112.41633       73.44253418        1.52030792
      112.51602       78.77947991        1.45026407
      112.61571       80.66176088        1.39996284
      112.71541       82.45794117        1.33400062
      112.81510       84.72973708        1.51636419
      112.91479       85.55946924        1.55223813
      113.01449       84.99288112        1.51495960
      113.11418       86.33139366        1.52181061
      113.21387       88.70218616        1.53567540
      113.31357       89.11908775        1.70951443
      113.41326       93.15779654        1.66127285
      113.51296       91.05715082        1.54484378
      113.61265       90.10785858        1.48277950
      113.71234       91.79049467        1.42955743
      113.81204       93.42043491        1.65232559
      113.91173       89.63526013        1.56815383
      114.01142       90.42575222        1.55923208
      114.11112       87.56690810        1.53341852
      114.21081       86.38415083        1.53397983
      114.31050       91.09500308        1.78669332
      114.41020       86.86185183        1.61194658
      114.50989       87.80327104        1.51725183
      114.60958       83.43710468        1.43107697
      114.70928       84.60643793        1.38993842
      114.80897       84.11683129        1.57185143
      114.90866       82.50870122        1.46825066
      115.00836       82.93089783        1.46514387
      115.10805       84.25735664        1.48492782
      115.20774       81.92416688        1.48626006
      115.30744       85.17934231        1.74027034
      115.40713       85.51895701        1.57942416
      115.50682       84.80882646        1.48485746
      115.60652       87.63738234        1.45487701
      115.70621       88.94912760        1.40873196
      115.80590       89.32837502        1.64692175
      115.90560       92.27113861        1.51725989
      116.00529       92.13770179        1.53307200
      116.10498       93.49336442        1.56051944
      116.20468       97.49614607        1.63039177
      116.30437      100.39122224        1.97237221
      116.40406      101.20875220        1.72488310
      116.50376      104.28227031        1.65474896
      116.60345      107.00739264        1.60920767
      116.70314      108.60587933        1.57208920
      116.80284      115.56810094        1.92735795
      116.90253      118.28338654        1.75417191
      117.00222      121.53097305        1.76422702
      117.10192      123.99834478        1.82995015
      117.20161      130.61816997        1.90146743
      117.30131      131.55110971        2.28352256
      117.40100      131.30764240        1.91796636
      117.50069      142.45846300        1.89812003
      117.60039      146.13413150        1.84002974
      117.70008      148.34416364        1.79614660
      117.79977      156.58999802        2.26198751
      117.89947      154.65251913        1.95407745
      117.99916      159.53690094        2.00870594
      118.09885      160.60622902        2.05329142
      118.19855      168.39910496        2.20274913
      118.29824      168.92215584        2.41858301
      118.39793      172.10926648        2.21675090
      118.49763      175.08842878        2.11004677
      118.59732      177.33440537        2.05039212
      118.69701      177.90639547        2.13946325
      118.79671      181.53358975        2.33385110
      118.89640      178.06083474        2.15480111
      118.99609      175.39747790        2.13613811
      119.09579      176.30747858        2.16670426
      119.19548      177.73204241        2.37713797
      119.29517      181.43389831        2.49557610
      119.39487      172.14113250        2.23384884
      119.49456      172.24140239        2.10572374
      119.59425      167.57097082        2.01674531
      119.69395      165.49420168        2.11430965
      119.79364      159.32195779        2.09609589
      119.89333      158.96089410        2.02631659
      119.99303      149.99099057        1.92117401
      120.09272      145.01394500        1.93174697
      120.19241      144.60238497        2.16820696
      120.29211      139.23322080        2.10548364
      120.39180      134.16811980        1.97149729
      120.49149      133.12403442        1.82637640
      120.59119      125.35670499        1.71973785
      120.69088      124.49809959        1.84490016
      120.79057      125.54011831        1.81290031
      120.89027      121.83881845        1.75318408
      120.98996      120.73503290        1.73174508
      121.08966      122.80828584        1.75975315
      121.18935      118.01746692        1.97706468
      121.28904      119.63997044        1.94025674
      121.38874      118.99004645        1.82975944
      121.48843      115.69743177        1.70394775
      121.58812      114.06693295        1.61355228
      121.68782      116.48064626        1.80650873
      121.78751      115.58794508        1.71476576
      121.88720      116.45148883        1.69920491
      121.98690      117.98459223        1.72326122
      122.08659      109.70588037        1.69448803
      122.18628      112.98846229        1.99512787
      122.28598      111.05381881        1.85993909
      122.38567      105.95393461        1.73963368
      122.48536      109.52985328        1.67332600
      122.58506      112.10521182        1.60348447
      122.68475      103.12942791        1.74222970
      122.78444      109.62305312        1.69174620
      122.88414      106.25040265        1.65118544
      122.98383      104.15381293        1.66818759
      123.08352      105.78970185        1.66695690
      123.18322      102.56457931        1.91411772
      123.28291      104.99388254        1.76027267
      123.38260      101.85994856        1.67356828
      123.48230      102.30672507        1.61656518
      123.58199       97.72694751        1.47651621
      123.68168       98.72225986        1.69347537
      123.78138       96.39197435        1.50959868
      123.88107       94.25784122        1.45816948
      123.98076       89.78413832        1.44924303
      124.08046       89.64349835        1.43284293
      124.18015       89.59504478        1.62133865
      124.27984       87.07158666        1.43188378
      124.37954       88.05454297        1.35882354
      124.47923       83.99369812        1.29542110
      124.57893       79.51076795        1.34259152
