        5.04651       62.98659934        2.70799952
        5.14621       50.59920153        2.33815001
        5.24590       55.31438913        2.41000907
        5.34559       52.79204596        2.15919878
        5.44529       53.06856183        2.35517880
        5.54498       51.96072601        1.96026036
        5.64467       49.46324743        1.89568724
        5.74437       47.21885672        1.67180757
        5.84406       51.65446023        1.76982232
        5.94375       50.52617026        1.74797088
        6.04345       45.37132371        1.60921649
        6.14314       50.03962090        1.54761788
        6.24283       47.94844566        1.56482853
        6.34253       50.38091290        1.53004501
        6.44222       47.73007736        1.56797891
        6.54191       49.37427688        1.51087464
        6.64161       49.00550965        1.42593602
        6.74130       46.45616022        1.39383357
        6.84099       48.72179576        1.41719547
        6.94069       49.69623507        1.45289959
        7.04038       49.18320730        1.33416678
        7.14007       47.15388229        1.30355102
        7.23977       46.73983678        1.27510611
        7.33946       48.76665385        1.32249090
        7.43915       48.18981261        1.29746516
        7.53885       46.76972058        1.25455854
        7.63854       49.70014733        1.23620073
        7.73823       46.80749880        1.24557924
        7.83793       46.89226738        1.20645611
        7.93762       48.70818889        1.28272610
        8.03732       45.64330387        1.11348131
        8.13701       46.60290847        1.12008441
        8.23670       46.91035233        1.13964238
        8.33640       45.75391733        1.12577073
        8.43609       49.29126094        1.22174818
        8.53578       46.74206289        1.10807034
        8.63548       45.59557529        1.08177425
        8.73517       45.24694866        1.05707865
        8.83486       46.23864415        1.07123979
        8.93456       44.42275752        1.04453459
        9.03425       44.41460581        1.01385423
        9.13394       46.87219655        1.04357756
        9.23364       46.27081938        1.05197833
        9.33333       43.94290428        1.04596090
        9.43302       46.26252460        1.07369957
        9.53272       43.93546755        1.01091273
        9.63241       45.52804583        1.05821782
        9.73210       44.63616992        1.04566842
        9.83180       45.35636909        1.09836183
        9.93149       45.91731970        1.09724413
       10.03118       44.88429362        1.04377700
       10.13088       46.57236006        1.03780840
       10.23057       46.86570255        1.09022533
       10.33026       46.02198484        1.11670896
       10.42996       47.16835031        1.11508664
       10.52965       46.88947626        1.07670132
       10.62934       46.77716296        1.07799053
       10.72904       46.90398027        1.09542007
       10.82873       46.61711098        1.08655100
       10.92842       48.67852312        1.12900773
       11.02812       47.20975813        1.05921181
       11.12781       46.37423965        1.08742119
       11.22750       47.72708545        1.11421221
       11.32720       49.31141550        1.16308255
       11.42689       51.32542982        1.14550912
       11.52658       53.81758017        1.15911230
       11.62628       52.62775852        1.15861611
       11.72597       55.95902915        1.22024164
       11.82567       59.58971432        1.29438622
       11.92536       63.49311901        1.25052709
       12.02505       67.26370109        1.29328750
       12.12475       74.28502782        1.35821111
       12.22444       81.98071845        1.51336746
       12.32413       96.17988881        1.66493517
       12.42383      106.20676869        1.66106931
       12.52352      124.57812406        1.78876947
       12.62321      142.14042706        1.96567707
       12.72291      174.27527927        2.11967213
       12.82260      199.42314399        2.46596751
       12.92229      217.70651386        2.34055067
       13.02199      247.44739095        2.47675129
       13.12168      268.72236079        2.62612524
       13.22137      298.36690327        2.85782979
       13.32107      321.50193423        3.06233416
       13.42076      345.77082038        3.05745728
       13.52045      364.94631029        3.17924465
       13.62015      367.33855211        3.09100785
       13.71984      347.72892567        3.13313206
       13.81953      311.72594125        3.01517944
       13.91923      285.70706525        2.71183844
       14.01892      220.85971942        2.31960688
       14.11861      167.83232878        2.10868974
       14.21831      136.67911485        1.90461034
       14.31800      105.67441724        1.76236247
       14.41769       81.81339786        1.49287772
       14.51739       68.59071975        1.33337880
       14.61708       60.54417762        1.25574593
       14.71677       53.67426557        1.20147181
       14.81647       51.50166194        1.23285173
       14.91616       49.27934963        1.10895307
       15.01585       50.39620491        1.14171836
       15.11555       46.75667896        1.11232418
       15.21524       47.47781960        1.15525718
       15.31493       45.81786834        1.16218175
       15.41463       47.59453424        1.14693689
       15.51432       46.27153982        1.09579255
       15.61402       46.51960329        1.12655800
       15.71371       46.33297345        1.11656593
       15.81340       46.51657318        1.16386221
       15.91310       44.61399534        1.10743155
       16.01279       45.55190062        1.07147793
       16.11248       46.75903317        1.11478170
       16.21218       47.29519062        1.15224617
       16.31187       46.77020887        1.14861379
       16.41156       46.21875398        1.12053907
       16.51126       48.56649929        1.16816458
       16.61095       47.47304603        1.11358258
       16.71064       50.10974258        1.18037053
       16.81034       48.72909740        1.16746168
       16.91003       52.85048807        1.18093777
       17.00972       53.65449329        1.14231666
       17.10942       59.59016337        1.27265241
       17.20911       60.50263052        1.29370939
       17.30880       66.42194693        1.36754749
       17.40850       67.76793820        1.38104403
       17.50819       72.49181268        1.38715591
       17.60788       74.19424720        1.44699579
       17.70758       74.46144239        1.45558417
       17.80727       73.47213119        1.46368286
       17.90696       68.66565837        1.32277280
       18.00666       67.25274227        1.33202219
       18.10635       63.89152158        1.26270005
       18.20604       59.20938126        1.33328716
       18.30574       57.93362019        1.25690006
       18.40543       53.11923480        1.17356993
       18.50512       55.09645084        1.23302092
       18.60482       53.17598304        1.19226242
       18.70451       50.43594465        1.22692730
       18.80420       49.89476847        1.14638940
       18.90390       50.85300315        1.14502916
       19.00359       50.29507176        1.10894236
       19.10328       48.82108909        1.15586834
       19.20298       48.13109658        1.18335394
       19.30267       45.91697132        1.10986618
       19.40237       47.73356683        1.11887215
       19.50206       46.76337458        1.13524759
       19.60175       44.72095803        1.09765201
       19.70145       43.38555314        1.13362175
       19.80114       46.13707135        1.10884937
       19.90083       48.56540667        1.09930393
       20.00053       45.42320597        1.08189096
       20.10022       44.69276226        1.08109948
       20.19991       46.85709034        1.18356124
       20.29961       47.20881325        1.12564552
       20.39930       49.73795412        1.19041415
       20.49899       49.59444487        1.16803853
       20.59869       51.49747994        1.21208068
       20.69838       53.48304038        1.28086622
       20.79807       53.90454217        1.22651283
       20.89777       52.93312756        1.18787402
       20.99746       55.38979501        1.22731451
       21.09715       56.55641567        1.30635022
       21.19685       57.86361555        1.31453430
       21.29654       58.79393915        1.29263044
       21.39623       59.34857132        1.29880656
       21.49593       56.57296628        1.24982528
       21.59562       51.21134092        1.21753078
       21.69531       49.43391377        1.24414432
       21.79501       49.94721758        1.14405864
       21.89470       45.32010527        1.06508282
       21.99439       46.80111799        1.12829366
       22.09409       43.78650788        1.09393850
       22.19378       46.24567242        1.19403391
       22.29347       46.80134307        1.11873972
       22.39317       43.10114227        1.10127339
       22.49286       46.49763098        1.14306480
       22.59255       46.40738070        1.15537859
       22.69225       49.24093896        1.25428436
       22.79194       50.25416330        1.13803529
       22.89163       54.92289622        1.16665471
       22.99133       58.91469850        1.24198947
       23.09102       65.02318331        1.35536988
       23.19072       68.73911609        1.39702961
       23.29041       72.95967122        1.42156987
       23.39010       70.46330000        1.41154984
       23.48980       69.56014821        1.40752161
       23.58949       65.73246497        1.38640955
       23.68918       63.20562135        1.42947486
       23.78888       58.32414942        1.22355428
       23.88857       53.43621800        1.18628334
       23.98826       50.71387807        1.18137171
       24.08796       47.32499405        1.11884866
       24.18765       44.97234967        1.16857879
       24.28734       43.35784411        1.09238567
       24.38704       43.31848956        1.11013752
       24.48673       43.55812855        1.10923230
       24.58642       44.44724790        1.15760743
       24.68612       45.52760443        1.17008819
       24.78581       42.14305146        1.03763219
       24.88550       45.44631877        1.07721710
       24.98520       45.48008218        1.11747971
       25.08489       44.65696950        1.12939857
       25.18458       46.65291936        1.17869364
       25.28428       47.28104048        1.14369695
       25.38397       47.09224714        1.13585923
       25.48366       49.89787378        1.17631613
       25.58336       56.97045029        1.31040993
       25.68305       63.23515021        1.35431256
       25.78274       70.76161268        1.35241663
       25.88244       87.16866288        1.53959262
       25.98213      103.93044815        1.69539474
       26.08182      129.30830769        1.94172551
       26.18152      151.25378652        2.15158120
       26.28121      175.95134793        2.19601658
       26.38090      192.24283595        2.31544352
       26.48060      197.71859339        2.41333369
       26.58029      189.97176730        2.46762747
       26.67998      171.95955672        2.21682124
       26.77968      145.50811346        2.01413292
       26.87937      118.02318566        1.78717335
       26.97907       93.92360712        1.58025531
       27.07876       82.65594458        1.59589768
       27.17845       78.04854562        1.48183734
       27.27815       75.60575167        1.42415624
       27.37784       81.62846560        1.53773735
       27.47753       83.05990802        1.52830604
       27.57723       83.21390335        1.60247098
       27.67692       83.52971442        1.56714629
       27.77661       79.31673697        1.45742553
       27.87631       67.20664929        1.31881470
       27.97600       61.98767698        1.29498949
       28.07569       59.52290337        1.34302212
       28.17539       51.91164530        1.20041517
       28.27508       49.19005188        1.16894348
       28.37477       49.06529162        1.19524421
       28.47447       48.22231215        1.17564284
       28.57416       49.94801972        1.29363279
       28.67385       49.84742624        1.14975498
       28.77355       52.95855671        1.16382750
       28.87324       56.08610072        1.22972774
       28.97293       59.14679421        1.26591533
       29.07263       57.06973661        1.35536558
       29.17232       56.57802031        1.23152848
       29.27201       55.10659242        1.23780509
       29.37171       51.46951601        1.23045395
       29.47140       53.96272634        1.24548038
       29.57109       51.25433304        1.28702249
       29.67079       48.90068628        1.14438210
       29.77048       48.24902378        1.13934297
       29.87017       45.24142732        1.08149245
       29.96987       46.68701924        1.15200843
       30.06956       47.76984412        1.20225648
       30.16925       45.31463930        1.10242889
       30.26895       46.36976112        1.11949142
       30.36864       48.21842824        1.16032014
       30.46833       51.36690263        1.20987089
       30.56803       51.06600333        1.27425837
       30.66772       53.74865578        1.21664429
       30.76742       57.70457460        1.23554463
       30.86711       59.76994208        1.28259822
       30.96680       63.86519005        1.33365669
       31.06650       61.41249814        1.37117630
       31.16619       59.13608105        1.26501822
       31.26588       59.61107504        1.26248800
       31.36558       57.98156538        1.26135203
       31.46527       55.32501528        1.28191473
       31.56496       58.46504791        1.33909737
       31.66466       62.01177988        1.28988090
       31.76435       67.36074528        1.34317799
       31.86404       78.93983666        1.43543351
       31.96374       83.75972045        1.51308071
       32.06343       87.67914827        1.60221017
       32.16312       86.12651952        1.49227232
       32.26282       84.92746610        1.51805440
       32.36251       78.20167073        1.51471568
       32.46220       76.85386368        1.52854805
       32.56190       73.85351660        1.52488915
       32.66159       66.15808084        1.37024263
       32.76128       68.33359049        1.36146149
       32.86098       63.92973510        1.33643332
       32.96067       62.83899475        1.34153385
       33.06036       62.24614423        1.35952648
       33.16006       61.14132563        1.26888235
       33.25975       58.28638295        1.27902366
       33.35944       57.29015828        1.27487351
       33.45914       56.94672461        1.31937679
       33.55883       57.65812214        1.33073110
       33.65852       60.43885522        1.27057251
       33.75822       64.97770732        1.31529288
       33.85791       72.97153870        1.39982140
       33.95760       81.36708367        1.52210393
       34.05730       90.17798465        1.58710253
       34.15699      106.32479924        1.69658885
       34.25668      123.68306152        1.82406704
       34.35638      149.42995912        2.05764290
       34.45607      187.01631457        2.42571206
       34.55577      224.60932024        2.53386097
       34.65546      289.78492043        2.76207032
       34.75515      366.05078332        3.16581939
       34.85485      416.84390737        3.35331977
       34.95454      445.11465773        3.57532577
       35.05423      431.24453481        3.63907568
       35.15393      389.32601956        3.24619121
       35.25362      320.97253808        2.99189946
       35.35331      256.38846687        2.74253875
       35.45301      195.17093820        2.49526191
       35.55270      150.30826320        2.13105602
       35.65239      114.65720474        1.79657412
       35.75209       89.11728730        1.57141431
       35.85178       78.15238962        1.46921467
       35.95147       73.65291019        1.45973103
       36.05117       69.17345212        1.38536475
       36.15086       66.88081080        1.30974506
       36.25055       62.54303576        1.32308132
       36.35025       60.44052476        1.32604332
       36.44994       61.60746610        1.36561225
       36.54963       58.45628164        1.27682787
       36.64933       55.84113262        1.22920806
       36.74902       54.70717352        1.22932917
       36.84871       52.79839974        1.19889995
       36.94841       52.30330941        1.29042308
       37.04810       52.25690092        1.13732131
       37.14779       50.29049529        1.13851753
       37.24749       50.66279800        1.17452692
       37.34718       47.54191118        1.16667158
       37.44687       49.53032131        1.27926518
       37.54657       46.90409788        1.13639637
       37.64626       46.37645772        1.12563280
       37.74595       45.44388504        1.09679985
       37.84565       46.91530380        1.17921278
       37.94534       43.60533998        1.15803127
       38.04503       45.97574699        1.07482034
       38.14473       48.15169579        1.11082546
       38.24442       47.90903248        1.12826385
       38.34412       45.62043296        1.15097244
       38.44381       47.01058658        1.26341866
       38.54350       49.66542269        1.15769836
       38.64320       49.84539425        1.15628599
       38.74289       52.80507991        1.20581056
       38.84258       53.49686687        1.21664772
       38.94228       53.13599578        1.27177464
       39.04197       57.87198369        1.19697614
       39.14166       65.01885951        1.32011863
       39.24136       68.19567657        1.34846656
       39.34105       69.87756450        1.41265848
       39.44074       70.23040653        1.54477624
       39.54044       70.83003006        1.38714925
       39.64013       69.70626377        1.37185216
       39.73982       66.46491879        1.34486524
       39.83952       62.45558484        1.29469548
       39.93921       61.43928581        1.36153974
       40.03890       58.12562174        1.21209407
       40.13860       55.69286106        1.18482591
       40.23829       56.63463108        1.23711280
       40.33798       57.36252346        1.28388154
       40.43768       57.28285079        1.34235278
       40.53737       57.67334522        1.25013271
       40.63706       55.56699919        1.25276289
       40.73676       59.54683616        1.29497152
       40.83645       58.85784156        1.29817340
       40.93614       63.00886709        1.36587033
       41.03584       66.97755503        1.32540618
       41.13553       77.42513474        1.42704766
       41.23522       91.40669614        1.58869568
       41.33492      118.44455874        1.89433256
       41.43461      144.68377876        2.16189218
       41.53430      163.28153401        2.15117008
       41.63400      191.63099324        2.38250481
       41.73369      213.57679379        2.46130947
       41.83338      214.02558402        2.52937593
       41.93308      223.44081082        2.56215048
       42.03277      225.77000338        2.35396097
       42.13247      255.26548638        2.63228887
       42.23216      298.69856426        2.85400327
       42.33185      356.58375016        3.34887848
       42.43155      408.22893880        3.53051995
       42.53124      471.92595106        3.67690240
       42.63093      507.64959934        3.82028457
       42.73063      524.45555343        3.90058574
       42.83032      514.22155302        3.93083519
       42.93001      480.66702319        3.65725608
       43.02971      430.29961559        3.26963684
       43.12940      344.15368399        2.98135474
       43.22909      274.67002523        2.79840637
       43.32879      208.45024667        2.56615625
       43.42848      161.49630610        2.20784240
       43.52817      116.73327297        1.79446439
       43.62787       91.95048370        1.58663725
       43.72756       78.38783736        1.49924143
       43.82725       67.27049167        1.44982337
       43.92695       63.27243336        1.27494646
       44.02664       55.94753686        1.19287385
       44.12633       55.52833845        1.23269045
       44.22603       55.48195535        1.28252727
       44.32572       54.39383665        1.33836293
       44.42541       55.83103894        1.29464155
       44.52511       53.31734537        1.23102309
       44.62480       56.10608644        1.28078356
       44.72449       56.95248389        1.25054143
       44.82419       61.34193786        1.45651433
       44.92388       65.53986654        1.25575701
       45.02357       76.14491774        1.36501381
       45.12327       91.16454518        1.53895608
       45.22296      108.18574328        1.72118034
       45.32265      128.86375483        2.07869806
       45.42235      153.48760180        2.06649110
       45.52204      174.44747452        2.18132754
       45.62174      203.59343918        2.40045661
       45.72143      220.71434438        2.49965613
       45.82112      221.55925671        2.74106776
       45.92082      218.07068695        2.30825551
       46.02051      220.21726161        2.36938906
       46.12020      217.93440544        2.36492646
       46.21990      214.29478007        2.46462228
       46.31959      202.08067439        2.58426098
       46.41928      186.80557365        2.29460569
       46.51898      159.46896056        2.13083643
       46.61867      136.38130420        1.95988766
       46.71836      110.22837211        1.80618537
       46.81806       89.94009740        1.69089542
       46.91775       74.55726608        1.34139244
       47.01744       67.42354755        1.30576549
       47.11714       66.64077096        1.32777413
       47.21683       69.29739566        1.39391683
       47.31652       77.46728510        1.60816248
       47.41622       86.06866194        1.59766887
       47.51591      106.67683888        1.78282776
       47.61560      119.32082000        1.87001050
       47.71530      130.93782783        1.98022938
       47.81499      144.56905177        2.13349331
       47.91468      158.47508852        1.95449259
       48.01438      164.82297245        1.99418866
       48.11407      169.98245531        2.10112053
       48.21376      168.01652665        2.18085746
       48.31346      165.61880888        2.24240612
       48.41315      157.69246537        2.03938938
       48.51284      144.22057905        2.01486621
       48.61254      126.96466074        1.88228472
       48.71223      110.62051591        1.78836809
       48.81192       97.81355765        1.67732664
       48.91162       80.42444010        1.36286555
       49.01131       68.12082142        1.29786353
       49.11100       60.25048375        1.26428959
       49.21070       53.32858229        1.24850593
       49.31039       52.20027274        1.27123522
       49.41009       50.13274588        1.17681566
       49.50978       50.42143619        1.20463312
       49.60947       49.05743364        1.19686816
       49.70917       47.53691437        1.22179512
       49.80886       48.92222284        1.20637006
       49.90855       49.60750452        1.10662224
       50.00825       49.84847569        1.13274673
       50.10794       48.53433642        1.14310042
       50.20763       51.60187054        1.23157131
       50.30733       50.56117895        1.27693439
       50.40702       53.82543398        1.23565806
       50.50671       55.86879104        1.26268179
       50.60641       55.94902545        1.26538158
       50.70610       54.99525134        1.29084190
       50.80579       57.37671271        1.30120421
       50.90549       56.89800869        1.16822195
       51.00518       54.73795526        1.15590342
       51.10487       56.73960637        1.21658380
       51.20457       54.70673178        1.27165833
       51.30426       56.16031232        1.28180514
       51.40395       55.31330316        1.21949219
       51.50365       57.48896141        1.25753977
       51.60334       59.58598746        1.30565056
       51.70303       60.65553650        1.39896885
       51.80273       59.34020479        1.26918380
       51.90242       60.18351886        1.19424263
       52.00211       62.72408347        1.22506372
       52.10181       60.02417526        1.23622023
       52.20150       62.46823451        1.38897563
       52.30119       63.50573835        1.34911338
       52.40089       63.46904061        1.32760264
       52.50058       60.54198075        1.32098765
       52.60027       61.43532183        1.34891578
       52.69997       60.01185013        1.46099107
       52.79966       65.61632460        1.28462904
       52.89935       67.37960782        1.25613542
       52.99905       77.00697248        1.36522118
       53.09874       87.90485654        1.50607176
       53.19844       98.88704619        1.82965992
       53.29813      110.59760522        1.71996698
       53.39782      122.49961150        1.87298059
       53.49752      131.12974682        1.94686456
       53.59721      138.47314010        1.99932028
       53.69690      143.00633637        2.22952030
       53.79660      148.43002670        1.90297816
       53.89629      143.84882276        1.85288163
       53.99598      146.19130633        1.91383849
       54.09568      136.29981064        1.92933361
       54.19537      128.05867415        2.03924504
       54.29506      118.33411187        1.80053313
       54.39476      107.19897460        1.72655069
       54.49445       96.44371548        1.63834859
       54.59414       93.21544258        1.63513263
       54.69384       93.45397668        1.74665949
       54.79353       86.17620538        1.43797972
       54.89322       86.32778046        1.43409762
       54.99292       80.53569211        1.42545735
       55.09261       74.33278565        1.42389210
       55.19230       72.97703298        1.51506408
       55.29200       68.38823421        1.36490057
       55.39169       65.33072376        1.37638439
       55.49138       59.82554246        1.31200111
       55.59108       57.63532243        1.32897154
       55.69077       56.92819149        1.35546035
       55.79046       55.38328327        1.16879924
       55.89016       56.64729105        1.17929004
       55.98985       56.01535796        1.18018464
       56.08954       58.89728404        1.25016576
       56.18924       66.16917570        1.43039589
       56.28893       73.63998564        1.38135948
       56.38862       82.07117553        1.50875628
       56.48832       95.85092804        1.65915565
       56.58801      104.56166071        1.78334224
       56.68770      112.69949813        1.91125132
       56.78740      117.12902064        1.66773255
       56.88709      114.86670838        1.66790478
       56.98679      106.82397326        1.60953411
       57.08648       96.56099976        1.62175978
       57.18617       86.30187000        1.58712345
       57.28587       75.14215916        1.38330150
       57.38556       66.33843302        1.38328688
       57.48525       59.98704366        1.34045607
       57.58495       55.21072552        1.31528361
       57.68464       54.07931230        1.31306278
       57.78433       54.66144547        1.15486591
       57.88403       51.49258094        1.13383217
       57.98372       51.34309135        1.15020768
       58.08341       51.52742877        1.24588009
       58.18311       52.00326998        1.28034618
       58.28280       53.01771639        1.21769299
       58.38249       53.15932494        1.27407906
       58.48219       54.27892200        1.31527775
       58.58188       54.71701436        1.33503790
       58.68157       52.72184748        1.28406080
       58.78127       52.78443964        1.12384038
       58.88096       52.93966181        1.10889126
       58.98065       54.61395727        1.16924425
       59.08035       56.22288930        1.26595804
       59.18004       55.92562834        1.28077901
       59.27973       59.44659059        1.24600244
       59.37943       62.44276112        1.31923607
       59.47912       66.49845614        1.41738468
       59.57881       72.23976852        1.54787508
       59.67851       77.98043510        1.49958487
       59.77820       83.59418778        1.42749577
       59.87789       91.23980118        1.48632610
       59.97759       99.46958251        1.62375813
       60.07728      105.59508242        1.81201358
       60.17697      107.03245119        1.73792146
       60.27667      109.12966555        1.70625424
       60.37636      108.29158380        1.73260884
       60.47605      103.78118526        1.76922376
       60.57575       99.04717120        1.89398934
       60.67544       94.02942236        1.58523516
       60.77514       85.31432014        1.43517376
       60.87483       76.66774214        1.33380016
       60.97452       72.32295178        1.36461586
       61.07422       67.60014229        1.48187568
       61.17391       67.04122662        1.27831777
       61.27360       65.69648229        1.31030626
       61.37330       70.26903922        1.40562277
       61.47299       67.51930377        1.43826086
       61.57268       68.99406632        1.65340937
       61.67238       72.80115027        1.38443054
       61.77207       71.74886798        1.33850400
       61.87176       71.50001568        1.32128196
       61.97146       70.18126127        1.35900070
       62.07115       71.19908342        1.55033609
       62.17084       68.10476512        1.32829860
       62.27054       71.79441022        1.42220433
       62.37023       68.27843789        1.44201671
       62.46992       69.28367547        1.50243217
       62.56962       67.79092349        1.66909065
       62.66931       75.08388413        1.41544746
       62.76900       78.47346749        1.41055239
       62.86870       82.53875594        1.41520856
       62.96839       96.27237739        1.57785094
       63.06808      100.46597476        1.79391276
       63.16778      107.73250472        1.64932121
       63.26747      108.67012084        1.71411927
       63.36716      111.87196812        1.80497772
       63.46686      116.28822852        1.89564160
       63.56655      118.95566276        2.03692579
       63.66624      125.90809551        1.78146232
       63.76594      138.82951146        1.81770410
       63.86563      154.26999248        1.91100325
       63.96532      164.96420507        2.06842032
       64.06502      171.83987957        2.26208384
       64.16471      173.64697101        2.10352463
       64.26440      164.42715804        2.13041117
       64.36410      155.08070185        2.11041513
       64.46379      139.60128101        2.11680835
       64.56349      128.06884474        2.06305890
       64.66318      107.70448429        1.65504069
       64.76287       90.33946823        1.49639650
       64.86257       73.35287314        1.34569061
       64.96226       63.23150522        1.30832831
       65.06195       59.90347656        1.37686240
       65.16165       55.93682028        1.20006436
       65.26134       54.21490726        1.20903974
       65.36103       55.73344321        1.27922309
       65.46073       55.72124667        1.32110776
       65.56042       55.28725629        1.37441122
       65.66011       53.98204628        1.18414356
       65.75981       58.50310991        1.22059461
       65.85950       58.17311015        1.20936026
       65.95919       64.42679901        1.33253638
       66.05889       64.68738941        1.38108506
       66.15858       66.99436091        1.33657975
       66.25827       76.94925831        1.48182708
       66.35797       84.76911785        1.62047292
       66.45766       94.64580266        1.81971171
       66.55735      104.03628533        1.90764632
       66.65705      119.62716938        1.81515650
       66.75674      135.98385890        1.88653575
       66.85643      149.22233804        1.95429747
       66.95613      156.63721145        2.08211296
       67.05582      168.75912509        2.17817449
       67.15551      172.51988564        2.09602633
       67.25521      165.45243016        2.15415244
       67.35490      154.17243581        2.18860044
       67.45459      145.00572856        2.23828768
       67.55429      126.59547988        2.00297316
       67.65398      107.75898010        1.65577725
       67.75367       90.08328273        1.50088558
       67.85337       81.01326294        1.44054369
       67.95306       77.54165473        1.50690091
       68.05275       73.52813492        1.38925750
       68.15245       80.74315581        1.44358979
       68.25214       85.63572978        1.57808469
       68.35184       90.47993205        1.69064606
       68.45153       97.73578712        1.93466411
       68.55122      106.73435437        1.74206373
       68.65092      114.31722106        1.68069332
       68.75061      126.52767913        1.78703146
       68.85030      124.41872143        1.80599538
       68.95000      126.35961082        2.06363229
       69.04969      123.89187217        1.72560709
       69.14938      115.46495471        1.71269738
       69.24908      107.39783090        1.76374856
       69.34877       91.55228244        1.68354504
       69.44846       88.78905896        1.92311295
       69.54816       79.31591860        1.41683845
       69.64785       69.88587386        1.31091439
       69.74754       61.09343181        1.23769597
       69.84724       56.63213449        1.22256964
       69.94693       53.58269295        1.34195913
       70.04662       49.16194624        1.05689033
       70.14632       45.02903687        1.05166022
       70.24601       47.62469939        1.15815325
       70.34570       47.22585300        1.22038877
       70.44540       47.30015417        1.43904086
       70.54509       48.01754398        1.13492453
       70.64478       49.13982395        1.14652329
       70.74448       47.49280555        1.14494460
       70.84417       50.11292497        1.22053563
       70.94386       51.58403692        1.35939968
       71.04356       52.74286870        1.13751117
       71.14325       52.40630995        1.17828389
       71.24294       51.40383980        1.22778659
       71.34264       50.16576933        1.28604637
       71.44233       54.59036153        1.49727199
       71.54202       52.57192973        1.19613434
       71.64172       53.10959326        1.16949290
       71.74141       53.01564527        1.14725095
       71.84110       52.99261098        1.18732631
       71.94080       52.60085431        1.28900615
       72.04049       52.87514825        1.09386787
       72.14019       51.70030564        1.12692636
       72.23988       52.11661127        1.18387074
       72.33957       54.92076824        1.35763487
       72.43927       54.48465875        1.48851586
       72.53896       51.32116940        1.15817352
       72.63865       53.11811329        1.15178324
       72.73835       53.75582095        1.13321883
       72.83804       55.33166039        1.21411758
       72.93773       58.15799760        1.32231861
       73.03743       61.55017691        1.18092583
       73.13712       61.01787629        1.23995513
       73.23681       60.88624279        1.30127285
       73.33651       61.62995072        1.44061478
       73.43620       62.35639799        1.56959974
       73.53589       63.46837408        1.27746915
       73.63559       63.79641668        1.26066890
       73.73528       65.15959777        1.26833847
       73.83497       65.84074635        1.35168993
       73.93467       63.06475001        1.39286877
       74.03436       61.93512442        1.22154618
       74.13405       63.47931472        1.28932860
       74.23375       63.70106784        1.34537513
       74.33344       66.20582612        1.51004389
       74.43313       66.07165487        1.56531835
       74.53283       67.01921819        1.33950294
       74.63252       70.05555059        1.35972852
       74.73221       73.53339208        1.38642164
       74.83191       76.13993026        1.49667022
       74.93160       78.12783205        1.53324776
       75.03129       79.51004936        1.37513664
       75.13099       83.37623476        1.45872637
       75.23068       87.71639595        1.56081336
       75.33037       93.37854070        1.77041249
       75.43007       96.21115101        1.82305966
       75.52976      107.00743183        1.67045722
       75.62945      116.14524951        1.73918669
       75.72915      121.46692018        1.77170826
       75.82884      130.75984146        1.97966782
       75.92854      130.53019310        1.85666377
       76.02823      141.94167344        1.81645003
       76.12792      146.67925349        1.93023531
       76.22762      154.76818922        2.09246563
       76.32731      151.27162437        2.33605807
       76.42700      151.77327915        2.20851404
       76.52670      148.37076360        2.01427899
       76.62639      143.10323609        1.95290740
       76.72608      137.36973477        1.88135998
       76.82578      132.29623890        2.12713129
       76.92547      127.66712793        1.67347484
       77.02516      126.37626395        1.72561990
       77.12486      125.54587179        1.80670130
       77.22455      127.68656351        1.94016740
       77.32424      127.92647748        2.38574725
       77.42394      130.93437009        1.92737571
       77.52363      127.40611245        1.83695010
       77.62332      131.76663326        1.85980293
       77.72302      139.98546761        1.92175280
       77.82271      140.85039508        2.26070690
       77.92240      141.87677754        1.73745539
       78.02210      137.72381419        1.84687096
       78.12179      135.59998650        1.95716567
       78.22148      133.70323354        2.05502594
       78.32118      133.53338447        2.38310310
       78.42087      127.61878948        1.83323564
       78.52056      123.98538398        1.86584971
       78.62026      114.60203072        1.77929322
       78.71995      111.92644368        1.76423222
       78.81964      107.62885894        1.93222704
       78.91934       99.46993702        1.43900721
       79.01903       89.97876084        1.50008177
       79.11872       81.73306470        1.48752810
       79.21842       74.70174938        1.51672162
       79.31811       72.34614915        1.68119114
       79.41780       70.35339495        1.34478714
       79.51750       67.33321547        1.33665747
       79.61719       63.29449174        1.29957956
       79.71689       67.69132192        1.39556443
       79.81658       65.23951826        1.45219817
       79.91627       64.93015217        1.22802181
       80.01597       63.71357741        1.25029326
       80.11566       63.60415943        1.30588252
       80.21535       62.21680940        1.38055102
       80.31505       62.31154941        1.64239776
       80.41474       64.20407354        1.28115119
       80.51443       68.93197882        1.32188865
       80.61413       73.28571119        1.40840334
       80.71382       78.97585958        1.51272779
       80.81351       83.64626679        1.74960633
       80.91321       92.98411238        1.36068384
       81.01290      110.31495212        1.60070320
       81.11259      129.98288699        1.87633997
       81.21229      145.93573927        2.15116995
       81.31198      157.11578054        2.49027200
       81.41167      179.56663283        2.08547405
       81.51137      201.32809467        2.27263922
       81.61106      213.92164943        2.44648562
       81.71075      229.39835386        2.62281848
       81.81045      234.55714381        2.80967777
       81.91014      257.63870239        2.26540679
       82.00983      276.43671950        2.50914711
       82.10953      280.02822844        2.82496646
       82.20922      281.19841228        3.14806756
       82.30891      287.06208975        3.33563710
       82.40861      280.46046238        2.68047485
       82.50830      279.55963049        2.66916497
       82.60799      278.52600429        2.86983827
       82.70769      275.13261143        3.10371656
       82.80738      276.00700825        2.97030733
       82.90707      272.21693279        2.39519423
       83.00677      268.84589224        2.53630154
       83.10646      259.93543708        2.93406267
       83.20615      255.57362255        3.23847408
       83.30585      241.81292817        2.98341011
       83.40554      230.50111103        2.42143278
       83.50524      214.67226267        2.27967050
       83.60493      193.43961719        2.38297963
       83.70462      179.25218012        2.58607265
       83.80432      169.05444776        2.19454022
       83.90401      142.32019447        1.68802429
       84.00370      121.13669951        1.62354924
       84.10340      102.49580460        1.78376301
       84.20309       91.96987160        2.05079092
       84.30278       87.41055784        1.62585557
       84.40248       79.16031062        1.36521373
       84.50217       72.20235721        1.27883858
       84.60186       67.48543407        1.39779548
       84.70156       68.76037670        1.84642035
       84.80125       66.21200096        1.26135124
       84.90094       64.68303788        1.11987525
       85.00064       64.46688550        1.15186756
       85.10033       67.25975191        1.39255919
       85.20002       66.41398701        2.37324522
       85.29972       63.86382530        1.22752105
       85.39941       65.86600337        1.27107052
       85.49910       66.56531291        1.24265806
       85.59880       65.91376389        1.39043713
       85.69849       69.78429628        2.56891396
       85.79818       65.92083559        1.17698783
       85.89788       61.83748331        1.11255509
       85.99757       64.37188093        1.16644783
       86.09726       61.97243188        1.31394625
       86.19696       64.34606536        2.57172334
       86.29665       60.59505820        1.18085104
       86.39634       59.69112242        1.19231249
       86.49604       59.57421021        1.17312555
       86.59573       57.74040924        1.23048180
       86.69542       55.36950719        2.51910521
       86.79512       54.60992718        1.03847848
       86.89481       53.96063680        1.01771655
       86.99451       53.11391376        1.04656656
       87.09420       51.32241013        1.14728038
       87.19389       50.27520800        2.68968648
       87.29359       51.94602364        1.10808786
       87.39328       49.83318902        1.09990046
       87.49297       48.01071617        1.04797884
       87.59267       48.19059127        1.07059319
       87.69236       50.16691471        3.26878539
       87.79205       48.56439661        1.00181439
       87.89175       49.40246794        1.00231634
       87.99144       50.06291202        1.05141011
       88.09113       51.58986986        1.13449830
       88.19083       52.63400599        6.06413072
       88.29052       48.85173852        1.11083069
       88.39021       48.64210906        1.11582493
       88.48991       49.27564996        1.07785158
       88.58960       48.89769980        1.03978147
       88.68929       52.69542693        8.36290776
       88.78899       48.25141089        0.99695578
       88.88868       50.66511694        0.99936020
       88.98837       49.38096278        1.02612349
       89.08807       50.08030723        1.05847425
       89.18776       46.21533652        8.27220763
       89.28745       49.49262497        1.06907043
       89.38715       52.97272135        1.11751533
       89.48684       54.33075270        1.10758606
       89.58653       55.15583431        1.09332260
       89.68623       55.54249405        8.89448184
       89.78592       60.04642745        1.10864521
       89.88561       60.49571003        1.09095416
       89.98531       63.91802841        1.14999667
       90.08500       69.33201235        1.24241665
       90.18469       66.03538011       10.11136237
       90.28439       74.34433925        1.31416310
       90.38408       77.06374679        1.36054119
       90.48377       82.67096150        1.38294693
       90.58347       86.80611112        1.39500353
       90.68316       87.47189503       10.90820045
       90.78286       91.13020404        1.36838733
       90.88255       92.82466620        1.34388300
       90.98224       97.74012789        1.42700403
       91.08194       99.72056594        1.48878095
       91.18163       97.25605717       11.73129509
       91.28132      100.79066429        1.54110453
       91.38102      101.74270271        1.58951044
       91.48071       94.64073912        1.49504131
       91.58040       93.91310824        1.44029125
       91.68010       76.58971014        9.83413855
       91.77979       89.38871540        1.34870186
       91.87948       87.18727346        1.31132457
       91.97918       81.59604472        1.31704778
       92.07887       81.51993684        1.37130522
       92.17856       83.04383836       10.52413803
       92.27826       80.50623869        1.40739722
       92.37795       79.64013475        1.43296949
       92.47764       77.95666437        1.34578472
       92.57734       78.35560958        1.30890420
       92.67703       79.48585431        8.55783108
       92.77672       80.53911192        1.27907213
       92.87642       83.87323044        1.28050229
       92.97611       85.47183933        1.34985684
       93.07580       88.19312549        1.56509726
       93.17550       92.36003799        3.01216311
       93.27519       90.14892430        1.45859294
       93.37488       91.27029265        1.42670265
       93.47458       93.84983543        1.46276196
       93.57427       96.45437702        1.71459749
       93.67396       96.97267031        2.32339192
       93.77366       97.98326255        1.44683190
       93.87335       96.09622086        1.36854419
       93.97304       94.82280442        1.41665524
       94.07274       88.18734921        1.77330778
       94.17243       89.48987793        2.03836068
       94.27212       89.05697784        1.51450428
       94.37182       90.31114160        1.48645650
       94.47151       92.09491659        1.43762535
       94.57121       87.66130562        1.85080526
       94.67090       91.84062852        1.91663191
       94.77059       88.76107502        1.46458478
       94.87029       79.58240728        1.26066036
       94.96998       75.96307936        1.24710972
       95.06967       69.33653485        1.37319740
       95.16937       71.92443030        1.91470944
       95.26906       66.56477140        1.42271679
       95.36875       63.39088339        1.25967814
       95.46845       61.92403948        1.19645739
       95.56814       62.56776148        1.38392527
       95.66783       58.94229929        1.50886733
       95.76753       58.58341624        1.24305809
       95.86722       55.02315721        1.02460659
       95.96691       54.79665861        1.06057750
       96.06661       52.33164321        1.32759640
       96.16630       52.20623604        1.41404259
       96.26599       50.13408442        1.24435408
       96.36569       49.11131231        1.10504565
       96.46538       48.93710443        1.06456705
       96.56507       46.41608844        1.27954818
       96.66477       50.72100015        1.30356315
       96.76446       47.00666069        1.12127769
       96.86415       46.04568059        0.96123262
       96.96385       46.26687673        0.99519260
       97.06354       45.78729903        1.33868899
       97.16323       48.35154328        1.31547112
       97.26293       45.58433757        1.19988130
       97.36262       49.96546054        1.16347839
       97.46231       45.72472100        1.02379635
       97.56201       50.83523506        1.37362626
       97.66170       49.65887543        1.21936411
       97.76139       51.69502279        1.13034159
       97.86109       53.30560231        1.03796913
       97.96078       51.72310796        1.04472220
       98.06047       55.50231914        1.50337805
       98.16017       55.30133083        1.33401590
       98.25986       57.32247528        1.29739078
       98.35956       57.93636733        1.23142130
       98.45925       60.30203104        1.17273300
       98.55894       63.98773681        1.57604077
       98.65864       65.30462919        1.36616983
       98.75833       69.19472024        1.31415037
       98.85802       69.56212853        1.23031241
       98.95772       70.92779084        1.23409714
       99.05741       70.77530289        1.71137704
       99.15710       74.25131678        1.50767192
       99.25680       75.19545566        1.46995099
       99.35649       77.47368009        1.42117838
       99.45618       82.41820878        1.36625538
       99.55588       83.06231166        1.83272825
       99.65557       85.28931971        1.53223325
       99.75526       83.48353466        1.42073775
       99.85496       87.91681631        1.38788195
       99.95465       84.63803570        1.33488452
      100.05434       86.33827827        1.92076892
      100.15404       82.84791939        1.58461734
      100.25373       86.32171552        1.59832140
      100.35342       86.67820468        1.59537849
      100.45312       88.17562891        1.46838329
      100.55281       84.15887630        1.88388286
      100.65250       87.03356696        1.56087412
      100.75220       79.33953221        1.38005198
      100.85189       81.13137053        1.33353423
      100.95158       80.67550454        1.29423266
      101.05128       79.90696924        1.83632858
      101.15097       78.52147142        1.50439664
      101.25066       78.80235486        1.48903209
      101.35036       73.97215284        1.45493473
      101.45005       75.17866378        1.37933894
      101.54974       73.01643420        1.69299810
      101.64944       75.81421186        1.40762842
      101.74913       73.77258300        1.30821619
      101.84882       76.05430508        1.29309081
      101.94852       76.94689069        1.37011045
      102.04821       81.38029437        1.69739515
      102.14791       78.97739086        1.50686190
      102.24760       80.30943530        1.50675458
      102.34729       78.40704111        1.48262639
      102.44699       80.28993483        1.52650897
      102.54668       80.72787169        1.60618365
      102.64637       83.21102157        1.45654135
      102.74607       85.73428216        1.40816304
      102.84576       83.33353253        1.36183035
      102.94545       83.76748332        1.55511383
      103.04515       85.92780222        1.66750384
      103.14484       85.67858468        1.55568335
      103.24453       83.57172717        1.51262103
      103.34423       85.22924143        1.51527054
      103.44392       86.94754673        1.65794873
      103.54361       85.06106843        1.59293587
      103.64331       87.19813132        1.46820770
      103.74300       85.85559042        1.38958408
      103.84269       86.05914980        1.36715721
      103.94239       84.92026633        1.63196715
      104.04208       81.99918066        1.55127469
      104.14177       80.96234746        1.49962493
      104.24147       83.88907613        1.52586994
      104.34116       80.43768937        1.50324544
      104.44085       83.55098585        1.74023903
      104.54055       78.34183784        1.52540970
      104.64024       78.82288787        1.43829653
      104.73993       76.23783028        1.34969783
      104.83963       73.40333712        1.27581880
      104.93932       75.64776457        1.57026063
      105.03901       72.67809880        1.45009105
      105.13871       73.12257555        1.40054670
      105.23840       69.78290514        1.36724370
      105.33809       68.48562151        1.36240885
      105.43779       68.79202006        1.58877722
      105.53748       70.17905268        1.43916245
      105.63717       63.89792296        1.25846628
      105.73687       65.06804375        1.20862851
      105.83656       63.60356472        1.16432623
      105.93626       60.56598655        1.43967333
      106.03595       58.22548707        1.27924967
      106.13564       58.91130766        1.24370654
      106.23534       58.51096123        1.25471881
      106.33503       56.85431688        1.24925066
      106.43472       53.58492434        1.43364158
      106.53442       54.60687601        1.25886846
      106.63411       55.24590425        1.15025509
      106.73380       53.28460837        1.07659133
      106.83350       54.21355330        1.06975757
      106.93319       57.43868092        1.42756010
      107.03288       56.19967913        1.25145058
      107.13258       57.65137660        1.23035770
      107.23227       57.08545646        1.24204776
      107.33196       57.21988213        1.24010204
      107.43166       57.07485188        1.48813899
      107.53135       59.19929705        1.30773983
      107.63104       59.46710924        1.19347929
      107.73074       59.30230062        1.14344255
      107.83043       62.38688875        1.15810420
      107.93012       59.70880768        1.49863431
      108.02982       64.89465283        1.36771900
      108.12951       62.58726836        1.27720901
      108.22920       62.38745622        1.25471304
      108.32890       60.15945846        1.22026256
      108.42859       66.34737139        1.62675621
      108.52828       66.37312571        1.38016230
      108.62798       65.60689836        1.24419239
      108.72767       67.57034568        1.21204008
      108.82736       65.08089789        1.21560635
      108.92706       64.21232586        1.52920191
      109.02675       62.74169670        1.32231868
      109.12644       64.50301869        1.30867207
      109.22614       66.66742231        1.33159551
      109.32583       66.35306268        1.44758396
      109.42552       62.61354712        1.48308393
      109.52522       64.80247468        1.36132541
      109.62491       62.53367378        1.27187973
      109.72461       63.39397262        1.22436229
      109.82430       61.64693833        1.12777681
      109.92399       59.82348851        1.44437807
      110.02369       61.94858496        1.28721842
      110.12338       61.99384269        1.27930024
      110.22307       59.04756979        1.23905839
      110.32277       58.21232184        1.25626201
      110.42246       57.02346302        1.51172982
      110.52215       57.80189911        1.28912620
      110.62185       59.95931973        1.23750678
      110.72154       57.26271306        1.12816687
      110.82123       54.95291869        1.14129476
      110.92093       56.05265612        1.34442761
      111.02062       53.73774098        1.21603775
      111.12031       58.30797857        1.27635612
      111.22001       58.57096671        1.25527868
      111.31970       59.67530972        1.37516086
      111.41939       58.03097457        1.40314978
      111.51909       58.25000038        1.27559747
      111.61878       59.02177064        1.20960204
      111.71847       62.23597540        1.15576408
      111.81817       63.64838056        1.26862617
      111.91786       64.31636229        1.34209061
      112.01755       65.52988005        1.32283665
      112.11725       71.72146667        1.39470569
      112.21694       72.40126364        1.39504003
      112.31663       70.75541232        1.51960364
      112.41633       74.18141131        1.52874037
      112.51602       77.33458413        1.43754834
      112.61571       80.81753028        1.40202220
      112.71541       82.39150060        1.33412653
      112.81510       87.58452440        1.54262307
      112.91479       89.35274645        1.58727837
      113.01449       87.12297506        1.53470749
      113.11418       88.41353644        1.54093509
      113.21387       87.56863467        1.52653306
      113.31357       89.75633021        1.71651105
      113.41326       90.85743774        1.64132058
      113.51296       91.24692714        1.54723566
      113.61265       91.45429512        1.49463360
      113.71234       94.30206621        1.44983487
      113.81204       90.66586004        1.62843887
      113.91173       94.66630466        1.61265164
      114.01142       89.72093410        1.55388102
      114.11112       88.38291545        1.54136064
      114.21081       90.70163558        1.57287058
      114.31050       90.92213470        1.78587814
      114.41020       87.71937976        1.62074216
      114.50989       89.04930033        1.52881008
      114.60958       88.48302663        1.47471245
      114.70928       85.89069398        1.40121090
      114.80897       84.80947341        1.57913698
      114.90866       86.32915732        1.50281110
      115.00836       87.48362057        1.50581609
      115.10805       89.93631598        1.53522698
      115.20774       87.26243048        1.53497361
      115.30744       93.85810847        1.82824672
      115.40713       89.74475757        1.61902501
      115.50682       91.12316706        1.54025254
      115.60652       90.64758900        1.48054827
      115.70621       91.02851611        1.42591914
      115.80590       93.17006493        1.68303037
      115.90560       93.10072947        1.52487103
      116.00529       97.53880023        1.57845347
      116.10498       96.32726742        1.58494236
      116.20468       97.95282377        1.63504797
      116.30437      100.53131195        1.97474299
      116.40406      101.55990227        1.72875669
      116.50376      103.90565931        1.65256081
      116.60345      102.42837735        1.57493368
      116.70314      108.54688123        1.57244308
      116.80284      112.57430765        1.90297902
      116.90253      115.45709946        1.73378038
      117.00222      117.83961884        1.73786856
      117.10192      124.23384224        1.83261511
      117.20161      125.27333545        1.86273659
      117.30131      126.20434545        2.23733078
      117.40100      128.78020580        1.90019605
      117.50069      134.15775970        1.84237248
      117.60039      139.55109505        1.79858807
      117.70008      142.83862012        1.76303850
      117.79977      148.74323567        2.20507621
      117.89947      154.25353422        1.95249856
      117.99916      155.05452703        1.98096071
      118.09885      155.46787801        2.02081994
      118.19855      161.48217170        2.15758674
      118.29824      166.72931592        2.40384328
      118.39793      168.63390234        2.19507924
      118.49763      172.33373521        2.09422042
      118.59732      176.29434585        2.04531147
      118.69701      179.73783783        2.15165259
      118.79671      178.97172623        2.31826770
      118.89640      179.17914896        2.16271483
      118.99609      178.04430286        2.15346313
      119.09579      178.29108992        2.18009173
      119.19548      176.98547871        2.37325619
      119.29517      179.13080212        2.48071791
      119.39487      177.39880246        2.26924906
      119.49456      179.31355578        2.15011675
      119.59425      173.81276645        2.05543090
      119.69395      172.14081759        2.15792176
      119.79364      166.80915190        2.14641016
      119.89333      163.01617577        2.05331181
      119.99303      163.63962868        2.00863720
      120.09272      155.18860407        2.00007297
      120.19241      150.04684436        2.21016763
      120.29211      146.74736928        2.16319624
      120.39180      142.39472593        2.03263655
      120.49149      138.86340088        1.86663517
      120.59119      134.23542756        1.78103898
      120.69088      127.69248618        1.86955894
      120.79057      128.64703587        1.83631077
      120.89027      124.95805825        1.77656336
      120.98996      122.77771627        1.74732873
      121.08966      122.01891342        1.75491430
      121.18935      119.08001030        1.98700899
      121.28904      117.54547164        1.92401568
      121.38874      117.50293373        1.81910132
      121.48843      114.21852526        1.69377888
      121.58812      114.65383996        1.61853820
      121.68782      113.70934042        1.78560582
      121.78751      116.53483884        1.72269093
      121.88720      110.00385055        1.65194488
      121.98690      114.20035768        1.69602053
      122.08659      109.98609113        1.69751385
      122.18628      108.18344899        1.95288881
      122.28598      110.64171744        1.85738425
      122.38567      107.88867931        1.75644012
      122.48536      106.35648053        1.64954660
      122.58506      107.00606339        1.56709382
      122.68475      105.78378833        1.76555326
      122.78444      106.10814171        1.66502868
      122.88414      105.67540726        1.64750008
      122.98383      107.42084217        1.69518868
      123.08352      102.46208010        1.64115748
      123.18322      102.60526120        1.91545569
      123.28291      101.23172394        1.72908225
      123.38260      103.77823247        1.69021056
      123.48230      101.83424937        1.61360637
      123.58199      100.21592409        1.49607771
      123.68168      100.00381007        1.70535945
      123.78138       95.48245116        1.50316209
      123.88107       94.39610730        1.45997449
      123.98076       93.13148211        1.47692223
      124.08046       88.38121756        1.42336689
      124.18015       93.07425923        1.65354686
      124.27984       86.31720836        1.42634209
      124.37954       87.76571015        1.35725723
      124.47923       86.13201621        1.31256117
      124.57893       80.67451693        1.35311264
