        5.04651       55.14169606        2.52897545
        5.14621       51.86148693        2.36342643
        5.24590       57.20156670        2.44699133
        5.34559       51.29084796        2.12473671
        5.44529       49.93048148        2.28055090
        5.54498       47.99470458        1.88066680
        5.64467       48.79025222        1.87966773
        5.74437       52.26931803        1.75642244
        5.84406       48.11708161        1.70518290
        5.94375       46.73632173        1.67820396
        6.04345       49.82897869        1.68396315
        6.14314       49.06751407        1.52998967
        6.24283       48.35805290        1.56898859
        6.34253       50.02003886        1.52207957
        6.44222       49.28417728        1.59082097
        6.54191       47.73059881        1.48303320
        6.64161       48.09446523        1.41029752
        6.74130       46.17747721        1.38739390
        6.84099       50.01789643        1.43367333
        6.94069       45.41564398        1.38647036
        7.04038       48.81799595        1.32704486
        7.14007       48.93239563        1.32584990
        7.23977       46.23991980        1.26620239
        7.33946       48.78163742        1.32056365
        7.43915       48.53884340        1.30007289
        7.53885       48.97676958        1.28184907
        7.63854       45.16747904        1.17639503
        7.73823       46.57871808        1.24051899
        7.83793       45.49931361        1.18642845
        7.93762       48.53682988        1.27839626
        8.03731       47.87207047        1.13859525
        8.13701       45.42223113        1.10397608
        8.23670       46.51653099        1.13300411
        8.33640       47.39825214        1.14404127
        8.43609       46.50742670        1.18471708
        8.53578       45.26996685        1.08866780
        8.63548       45.32548705        1.07681694
        8.73517       47.50370722        1.08146038
        8.83486       45.49800209        1.06088504
        8.93456       45.51216543        1.05560182
        9.03425       46.25153094        1.03300625
        9.13394       47.66680691        1.05071949
        9.23364       47.50382312        1.06423125
        9.33333       46.98578427        1.07994186
        9.43302       45.17082690        1.05920474
        9.53272       44.66342267        1.01763623
        9.63241       46.14950553        1.06372165
        9.73210       47.04624568        1.07188818
        9.83180       46.53039844        1.11073964
        9.93149       46.98791217        1.10821410
       10.03118       43.02609840        1.02022850
       10.13088       47.37724920        1.04508074
       10.23057       47.46572486        1.09543840
       10.33026       47.16187167        1.12867617
       10.42996       46.36160610        1.10369597
       10.52965       46.87814948        1.07483586
       10.62934       45.87366395        1.06577459
       10.72904       45.90456302        1.08190217
       10.82873       46.22516090        1.08021622
       10.92842       49.10258969        1.13210285
       11.02812       49.90851847        1.08741477
       11.12781       47.87097037        1.10310770
       11.22750       48.24004589        1.11839892
       11.32720       50.62508179        1.17662966
       11.42689       50.02394505        1.12901757
       11.52658       51.96716211        1.13710224
       11.62628       54.37954715        1.17591643
       11.72597       55.27627605        1.21079243
       11.82566       58.46036737        1.27994716
       11.92536       61.99359777        1.23361696
       12.02505       67.00192554        1.28867935
       12.12475       71.45875326        1.32984760
       12.22444       83.76143584        1.52735176
       12.32413       93.23365129        1.63643650
       12.42383      104.13653632        1.64203814
       12.52352      123.19989117        1.77590993
       12.62321      140.92132875        1.95401265
       12.72291      168.27894588        2.07912343
       12.82260      197.04530121        2.44711276
       12.92229      216.28794552        2.32908074
       13.02199      243.35690215        2.45194154
       13.12168      270.13204670        2.62895447
       13.22137      300.48524204        2.86362631
       13.32107      327.90228448        3.08846190
       13.42076      345.56724234        3.05170999
       13.52045      363.91890762        3.16964929
       13.62015      363.84435878        3.07105349
       13.71984      348.50885771        3.13177729
       13.81953      319.72417527        3.04963048
       13.91923      283.79172279        2.69826983
       14.01892      221.99577208        2.32195512
       14.11861      170.76342373        2.12384181
       14.21831      135.04141189        1.89002472
       14.31800      108.15154369        1.78019406
       14.41769       80.32340752        1.47676430
       14.51739       70.57323743        1.35043100
       14.61708       60.60026105        1.25430525
       14.71677       55.37478585        1.21846335
       14.81647       51.92143838        1.23589009
       14.91616       50.34896271        1.11915926
       15.01585       48.28834503        1.11570293
       15.11555       48.73130865        1.13381840
       15.21524       48.01873575        1.15996918
       15.31493       47.62317566        1.18302218
       15.41463       47.22166726        1.14057920
       15.51432       47.84003082        1.11247586
       15.61401       46.99256154        1.13046606
       15.71371       45.89853505        1.10950939
       15.81340       45.52150261        1.14945028
       15.91310       47.05843556        1.13563011
       16.01279       45.03358495        1.06362795
       16.11248       45.34893897        1.09601997
       16.21218       46.23603971        1.13739258
       16.31187       46.95950905        1.14908863
       16.41156       47.94653172        1.13952160
       16.51126       47.60507598        1.15464116
       16.61095       49.62545029        1.13679912
       16.71064       51.03258362        1.18930990
       16.81034       52.07276111        1.20504814
       16.91003       52.26843439        1.17250095
       17.00972       53.61492952        1.14005418
       17.10942       57.07224204        1.24335897
       17.20911       60.83978219        1.29523578
       17.30880       63.77621974        1.33775288
       17.40850       64.33413900        1.34327218
       17.50819       71.50348728        1.37540328
       17.60788       73.56856523        1.43853224
       17.70758       73.65276259        1.44528864
       17.80727       74.75921416        1.47413932
       17.90696       70.73845188        1.34052711
       18.00666       69.33749713        1.35043281
       18.10635       61.18013309        1.23350971
       18.20604       57.72201349        1.31424550
       18.30574       57.13906394        1.24620606
       18.40543       55.12395257        1.19366859
       18.50512       55.41852646        1.23464180
       18.60482       52.74257485        1.18546284
       18.70451       50.86974595        1.23022598
       18.80420       49.66256701        1.14186639
       18.90390       50.07850525        1.13441443
       19.00359       50.07221433        1.10469145
       19.10328       48.90504948        1.15500082
       19.20298       47.30102843        1.17118071
       19.30267       46.77588706        1.11842700
       19.40237       46.45621742        1.10197159
       19.50206       46.41394800        1.12916147
       19.60175       44.29045918        1.09057874
       19.70145       45.06460761        1.15355548
       19.80114       43.72957158        1.07769943
       19.90083       45.22010865        1.05893261
       20.00053       45.11494500        1.07646412
       20.10022       45.84169644        1.09318691
       20.19991       46.58690555        1.17823090
       20.29961       47.92036775        1.13229768
       20.39930       49.85200279        1.18986256
       20.49899       51.81137270        1.19202914
       20.59869       51.20756435        1.20670417
       20.69838       50.31094604        1.24016172
       20.79807       54.11225966        1.22690293
       20.89777       54.85669786        1.20739880
       20.99746       56.63418504        1.23908024
       21.09715       56.42397596        1.30271184
       21.19685       58.68337178        1.32171949
       21.29654       57.60220775        1.27734899
       21.39623       56.95099118        1.27014490
       21.49593       55.73918016        1.23854685
       21.59562       52.40742960        1.22973457
       21.69531       52.59136702        1.28133718
       21.79501       48.67504882        1.12752448
       21.89470       46.29597515        1.07479085
       21.99439       47.25357153        1.13192527
       22.09409       46.23538110        1.12239813
       22.19378       43.70920560        1.15885285
       22.29347       44.69614371        1.09144532
       22.39317       45.46494520        1.12934029
       22.49286       47.95794766        1.15906414
       22.59255       46.29313896        1.15209119
       22.69225       48.51299903        1.24294053
       22.79194       50.17581037        1.13531315
       22.89163       52.67024962        1.14054780
       22.99133       59.16966064        1.24268086
       23.09102       62.20140381        1.32336937
       23.19072       64.83668746        1.35442414
       23.29041       68.04380202        1.37039736
       23.39010       71.30012808        1.41766429
       23.48980       67.22673134        1.38137242
       23.58949       65.62216380        1.38301121
       23.68918       62.54483322        1.41966004
       23.78888       59.53687387        1.23427152
       23.88857       50.97043520        1.15662300
       23.98826       50.11222389        1.17242586
       24.08796       46.51554761        1.10741976
       24.18765       47.05118376        1.19344386
       24.28734       47.18895220        1.13794236
       24.38704       46.16705525        1.14432472
       24.48673       43.19565216        1.10281255
       24.58642       45.15920200        1.16499041
       24.68612       42.43010816        1.12763919
       24.78581       44.09936491        1.05980474
       24.88550       45.55503555        1.07677056
       24.98520       42.84693897        1.08279927
       25.08489       46.83639878        1.15485447
       25.18458       46.25984437        1.17180965
       25.28428       46.95472639        1.13789371
       25.38397       48.51532389        1.15109351
       25.48366       49.28528677        1.16716390
       25.58336       53.42834687        1.26681767
       25.68305       61.91426381        1.33787299
       25.78274       68.93608199        1.33262445
       25.88244       85.38672669        1.52123106
       25.98213      103.18967276        1.68658541
       26.08182      129.01529259        1.93639645
       26.18152      150.49906988        2.14271577
       26.28121      177.10263987        2.19976158
       26.38090      189.32412234        2.29389764
       26.48060      200.59270681        2.42717790
       26.58029      186.86828706        2.44321874
       26.67998      174.99226741        2.23294773
       26.77968      148.28078684        2.03017582
       26.87937      121.48734374        1.81052490
       26.97907       93.06081450        1.57040572
       27.07876       80.95223294        1.57673093
       27.17845       77.68503001        1.47598572
       27.27815       79.26261706        1.45603351
       27.37784       81.62863439        1.53526663
       27.47753       86.75984530        1.55966934
       27.57723       82.43005637        1.59229628
       27.67692       83.27694867        1.56224340
       27.77661       77.97922896        1.44269328
       27.87631       70.40419607        1.34780331
       27.97600       62.80147769        1.30140107
       28.07569       55.62183956        1.29599814
       28.17539       51.34445274        1.19189122
       28.27508       50.24706469        1.17957760
       28.37477       49.50733257        1.19869898
       28.47447       51.22746534        1.20989806
       28.57416       50.73128726        1.30167111
       28.67385       50.08320804        1.15062341
       28.77355       55.05907757        1.18485992
       28.87324       54.74199932        1.21288891
       28.97293       57.62432447        1.24743734
       29.07263       58.20551985        1.36663662
       29.17232       57.14377597        1.23570183
       29.27201       56.06525621        1.24655937
       29.37171       51.36424656        1.22720733
       29.47140       52.54380204        1.22695597
       29.57109       50.34983338        1.27352000
       29.67079       48.46688204        1.13744084
       29.77048       46.24906118        1.11360351
       29.87017       44.72658540        1.07356829
       29.96987       47.90927798        1.16516054
       30.06956       45.81384653        1.17540630
       30.16925       45.09951711        1.09802789
       30.26895       49.29449729        1.15251685
       30.36864       47.14142543        1.14539519
       30.46833       48.91054644        1.17858439
       30.56803       54.04410924        1.30891482
       30.66772       55.86162778        1.23842213
       30.76742       57.73856771        1.23391988
       30.86711       61.47776613        1.29877765
       30.96680       59.76837196        1.28790814
       31.06650       62.03604365        1.37593083
       31.16619       61.95480864        1.29286049
       31.26588       55.34186351        1.21429751
       31.36558       57.81145349        1.25746435
       31.46527       56.59493116        1.29451419
       31.56496       59.30769101        1.34658024
       31.66466       63.45670196        1.30278789
       31.76435       68.94836485        1.35680326
       31.86404       77.72181436        1.42196498
       31.96374       85.10277589        1.52278373
       32.06343       86.34998826        1.58739016
       32.16312       87.47607968        1.50157251
       32.26282       85.31469247        1.51908643
       32.36251       78.68333542        1.51695570
       32.46220       73.47070787        1.49194424
       32.56190       70.44328932        1.48669226
       32.66159       66.97223162        1.37646860
       32.76128       66.13197294        1.33709052
       32.86098       65.01136068        1.34557341
       32.96067       62.37945428        1.33444643
       33.06036       61.41540247        1.34820995
       33.16006       59.88701511        1.25372205
       33.25975       57.19437282        1.26489652
       33.35944       55.27390880        1.25013320
       33.45914       55.21268980        1.29696228
       33.55883       57.79628667        1.33018535
       33.65852       59.95451809        1.26341215
       33.75822       63.96074360        1.30281230
       33.85791       73.25199472        1.40026649
       33.95760       81.17463292        1.51784831
       34.05730       90.45807533        1.58702692
       34.15699      106.80947100        1.69775118
       34.25668      124.24035675        1.82527715
       34.35638      147.44580912        2.04052393
       34.45607      182.46762920        2.39182660
       34.55577      226.60234351        2.54120339
       34.65546      290.38202597        2.76059072
       34.75515      363.13264383        3.14788781
       34.85485      423.08803853        3.37376076
       34.95454      439.66695974        3.54714383
       35.05423      436.63629856        3.65668762
       35.15393      391.54620895        3.25056009
       35.25362      320.11725629        2.98309818
       35.35331      253.85762203        2.72439495
       35.45301      192.01660669        2.47079557
       35.55270      148.34500703        2.11355994
       35.65239      110.35874783        1.75948290
       35.75209       90.20558688        1.57850033
       35.85178       79.58532428        1.48031317
       35.95147       71.71065457        1.43794039
       36.05117       65.55534701        1.34630547
       36.15086       64.70685011        1.28611056
       36.25055       65.83775142        1.35545566
       36.35025       57.86454517        1.29527073
       36.44994       58.17977922        1.32478244
       36.54963       58.84777650        1.27905080
       36.64933       55.10188309        1.21904613
       36.74902       53.74438910        1.21645971
       36.84871       55.05084249        1.22233121
       36.94841       52.64984719        1.29262110
       37.04810       50.81439223        1.11965004
       37.14779       49.66772244        1.12959835
       37.24749       48.47231709        1.14691554
       37.34718       48.72258638        1.17921512
       37.44687       50.36661818        1.28797932
       37.54657       47.49730141        1.14174077
       37.64626       48.17050221        1.14542202
       37.74595       46.29069043        1.10522070
       37.84565       45.63983428        1.16114592
       37.94534       45.43961188        1.18030764
       38.04503       46.14715163        1.07509299
       38.14473       46.90614198        1.09454948
       38.24442       45.50877836        1.09777224
       38.34412       47.98132805        1.17857464
       38.44381       48.96120973        1.28737468
       38.54350       48.94720412        1.14741596
       38.64320       48.53560989        1.13910179
       38.74289       51.32520050        1.18681671
       38.84258       53.36705810        1.21320797
       38.94228       55.19756848        1.29421783
       39.04197       58.33424369        1.19983069
       39.14166       62.20598614        1.28904073
       39.24136       69.37103529        1.35790523
       39.34105       70.39579094        1.41563149
       39.44074       70.28426145        1.54288468
       39.54044       70.53538271        1.38201949
       39.64013       68.16736498        1.35436891
       39.73982       66.06790931        1.33866524
       39.83952       64.66459715        1.31537486
       39.93921       61.34631679        1.35831384
       40.03890       58.38307317        1.21283036
       40.13860       56.44350467        1.19089414
       40.23829       57.59305456        1.24557024
       40.33798       55.99484561        1.26637917
       40.43768       54.71797664        1.30972458
       40.53737       57.23523110        1.24335051
       40.63706       60.26863051        1.30280106
       40.73676       57.52475414        1.27065428
       40.83645       57.75481766        1.28383141
       40.93614       62.71336498        1.36045575
       41.03584       66.72777602        1.32079143
       41.13553       76.67323070        1.41778003
       41.23522       94.46854870        1.61266438
       41.33492      111.90144415        1.83789020
       41.43461      139.97835279        2.12269237
       41.53430      168.40022720        2.18152963
       41.63400      191.47976113        2.37774976
       41.73369      211.86221766        2.44735865
       41.83338      216.35311270        2.53924841
       41.93308      218.02856387        2.52642274
       42.03277      228.39391096        2.36404854
       42.13247      252.37969916        2.61294813
       42.23216      292.85989018        2.82092492
       42.33185      352.10283354        3.32200758
       42.43155      418.03534622        3.56826218
       42.53124      472.41418857        3.67310920
       42.63093      509.71365786        3.82233762
       42.73063      528.60232073        3.91042511
       42.83032      524.56811886        3.96539275
       42.93001      488.50906496        3.68219135
       43.02971      424.94371212        3.24352849
       43.12940      342.01906837        2.96718354
       43.22909      268.43169731        2.76145840
       43.32879      206.82596276        2.55192087
       43.42848      158.45196212        2.18320417
       43.52817      120.08099757        1.81730831
       43.62787       90.42601208        1.57081739
       43.72756       74.16606755        1.45574838
       43.82725       64.02929724        1.41202792
       43.92695       63.08880484        1.27103675
       44.02664       56.73559241        1.19934483
       44.12633       57.16346669        1.24876500
       44.22603       54.61362981        1.27036337
       44.32572       56.08392532        1.35689213
       44.42541       51.14843173        1.23695736
       44.52511       53.95527031        1.23639865
       44.62480       55.90020898        1.27636313
       44.72449       57.93650911        1.25931194
       44.82419       59.19151264        1.42834376
       44.92388       67.50794247        1.27250863
       45.02357       74.01227994        1.34349749
       45.12327       90.46957707        1.53057817
       45.22296      106.41367613        1.70418047
       45.32265      130.10048950        2.08539326
       45.42235      153.27404777        2.06173363
       45.52204      181.03853521        2.21911598
       45.62173      206.49331691        2.41388273
       45.72143      213.83733258        2.45589890
       45.82112      224.51706998        2.75519486
       45.92082      227.08438944        2.35246644
       46.02051      223.01013063        2.38080179
       46.12020      218.28469051        2.36308594
       46.21990      209.04021574        2.42989492
       46.31959      199.18097201        2.56130290
       46.41928      182.12568238        2.26169485
       46.51898      161.10566108        2.13844259
       46.61867      133.77946688        1.93781579
       46.71836      104.88752348        1.75872784
       46.81806       86.59566512        1.65629831
       46.91775       73.36727327        1.32844851
       47.01744       64.74420249        1.27737780
       47.11714       66.61193899        1.32534870
       47.21683       68.99551503        1.38862460
       47.31652       78.50552877        1.61635868
       47.41622       87.73274527        1.61054178
       47.51591      102.90849820        1.74801371
       47.61560      116.06539231        1.84115629
       47.71530      132.84889594        1.99156608
       47.81499      142.08938444        2.11154773
       47.91468      156.03287363        1.93610711
       48.01438      166.51342954        2.00130379
       48.11407      169.34227484        2.09376253
       48.21376      172.03401649        2.20356059
       48.31346      164.67941425        2.23239016
       48.41315      159.04986050        2.04497001
       48.51284      143.42666975        2.00604064
       48.61254      128.43044269        1.89018258
       48.71223      110.78516686        1.78683718
       48.81192       92.94986616        1.63218778
       48.91162       77.38601923        1.33458086
       49.01131       65.31864747        1.26871859
       49.11100       57.14947900        1.22920710
       49.21070       54.94366330        1.26530143
       49.31039       50.70397233        1.25079842
       49.41008       49.83402273        1.17140143
       49.50978       48.73803922        1.18237457
       49.60947       49.03146971        1.19462217
       49.70917       46.57223171        1.20734431
       49.80886       48.33688550        1.19717422
       49.90855       48.36391552        1.09085505
       50.00825       47.87895872        1.10827781
       50.10794       50.09271497        1.15949971
       50.20763       51.70215121        1.23078575
       50.30733       52.07657480        1.29391021
       50.40702       52.68473088        1.22047606
       50.50671       53.57870971        1.23444070
       50.60641       56.39735633        1.26841533
       50.70610       56.79568193        1.30977177
       50.80579       55.37986017        1.27621233
       50.90549       57.21480345        1.16959606
       51.00518       54.70681912        1.15371205
       51.10487       54.61932847        1.19162500
       51.20457       55.98354154        1.28439811
       51.30426       53.93059015        1.25397987
       51.40395       58.79973139        1.25546694
       51.50365       57.41976139        1.25475573
       51.60334       56.99141243        1.27473515
       51.70303       61.69193755        1.40865022
       51.80273       60.42286647        1.27869621
       51.90242       58.68078459        1.17727781
       52.00211       61.16489268        1.20772728
       52.10181       64.26085722        1.27723613
       52.20150       63.16909125        1.39453143
       52.30119       62.35995784        1.33468116
       52.40089       61.45443160        1.30416728
       52.50058       59.68562078        1.30946028
       52.60027       61.74974667        1.35020067
       52.69997       59.22151882        1.44896392
       52.79966       63.41524173        1.26076741
       52.89935       68.63821792        1.26582857
       52.99905       76.50468085        1.35854891
       53.09874       85.94123192        1.48665955
       53.19843       99.30670319        1.83062113
       53.29813      110.57070965        1.71699669
       53.39782      118.49093588        1.83886857
       53.49752      127.22417261        1.91431706
       53.59721      144.46496169        2.03927709
       53.69690      144.85447912        2.24043756
       53.79660      149.95008372        1.90973623
       53.89629      149.71952155        1.88767594
       53.99598      144.94499615        1.90253019
       54.09568      135.04982197        1.91730658
       54.19537      127.58887753        2.03220813
       54.29506      115.72448150        1.77754873
       54.39476      106.45168764        1.71771565
       54.49445       97.67286447        1.64617958
       54.59414       92.79841502        1.62882595
       54.69384       90.49882625        1.71588160
       54.79353       87.67097279        1.44814320
       54.89322       85.79879269        1.42737206
       54.99292       79.34623933        1.41255817
       55.09261       75.94964441        1.43706125
       55.19230       71.92319069        1.50160933
       55.29200       68.01784429        1.35899104
       55.39169       61.41311472        1.33214627
       55.49138       59.55871419        1.30695197
       55.59108       58.74205970        1.33956327
       55.69077       55.63215206        1.33772178
       55.79046       55.58835012        1.16908356
       55.89016       55.68799805        1.16733951
       55.98985       57.80959205        1.19708171
       56.08954       59.44017365        1.25391606
       56.18924       65.14126885        1.41690626
       56.28893       71.91790523        1.36283380
       56.38862       85.85544265        1.54087297
       56.48832       93.72846719        1.63792578
       56.58801      106.80474237        1.79961809
       56.68770      111.72384696        1.89984207
       56.78740      115.43237264        1.65285600
       56.88709      114.67473521        1.66382636
       56.98679      107.13673843        1.60932056
       57.08648       97.02483203        1.62306590
       57.18617       85.69454709        1.57895204
       57.28587       75.01403735        1.37989237
       57.38556       69.16986928        1.41036648
       57.48525       60.74190897        1.34672817
       57.58495       55.13584291        1.31227074
       57.68464       52.47204739        1.29124597
       57.78433       53.27195336        1.13820096
       57.88403       49.07529363        1.10502108
       57.98372       53.42989116        1.17154538
       58.08341       51.12220830        1.23895470
       58.18311       52.21620349        1.28090704
       58.28280       53.63840094        1.22285388
       58.38249       52.22032598        1.26070139
       58.48219       52.62628702        1.29293704
       58.58188       52.55735451        1.30622064
       58.68157       53.78043844        1.29484536
       58.78127       55.24891154        1.14802436
       58.88096       53.57222041        1.11372437
       58.98065       54.14705961        1.16234141
       59.08035       56.84936757        1.27096960
       59.18004       59.10843228        1.31474658
       59.27973       58.72123029        1.23635156
       59.37943       61.70682896        1.30929433
       59.47912       65.34723012        1.40274402
       59.57881       70.95883630        1.53155328
       59.67851       78.20935082        1.49938045
       59.77820       83.48662141        1.42427855
       59.87789       90.83661647        1.48063472
       59.97759       98.18025085        1.61053706
       60.07728      106.65599896        1.81823946
       60.17697      107.86240504        1.74189626
       60.27667      109.08110891        1.70313447
       60.37636      107.11031515        1.72029689
       60.47605      103.92069090        1.76757897
       60.57575       97.93186175        1.88020068
       60.67544       94.88527902        1.58992130
       60.77514       87.23640411        1.44901607
       60.87483       79.32608846        1.35467193
       60.97452       70.67850910        1.34676440
       61.07422       69.13930116        1.49632044
       61.17391       65.82436433        1.26457032
       61.27360       64.56011839        1.29678203
       61.37330       68.97027909        1.39026785
       61.47299       66.30438225        1.42290811
       61.57268       70.11714377        1.66419508
       61.67238       71.95232657        1.37408074
       61.77207       69.21986490        1.31247044
       61.87176       70.44265553        1.30931739
       61.97146       72.35114539        1.37773484
       62.07115       68.43226742        1.51732103
       62.17084       69.26943302        1.33750706
       62.27054       63.71127848        1.33721652
       62.37023       69.48877726        1.45246280
       62.46992       67.98666469        1.48583976
       62.56962       70.26815567        1.69672651
       62.66931       72.00026125        1.38369736
       62.76900       76.76112017        1.39275073
       62.86870       85.42211290        1.43754666
       62.96839       94.58318170        1.56134263
       63.06808      100.74975940        1.79357797
       63.16778      103.90056389        1.61690597
       63.26747      106.60261235        1.69488759
       63.36716      113.69998688        1.81686219
       63.46686      117.84707809        1.90534886
       63.56655      118.28905959        2.02790574
       63.66624      124.76426378        1.77043857
       63.76594      140.97735348        1.82891586
       63.86563      155.84775074        1.91778434
       63.96532      166.34194541        2.07382013
       64.06502      173.31643243        2.26826946
       64.16471      173.69479492        2.10045721
       64.26440      165.03737596        2.13099466
       64.36410      151.46744648        2.08208499
       64.46379      139.97890289        2.11630352
       64.56349      126.17069522        2.04429540
       64.66318      108.90959017        1.66167373
       64.76287       88.43282467        1.47804326
       64.86257       75.93346680        1.36707897
       64.96226       64.74271893        1.32180967
       65.06195       55.72488701        1.32563885
       65.16165       54.73190346        1.18510684
       65.26134       53.18951263        1.19557896
       65.36103       53.04961140        1.24591452
       65.46073       53.00062232        1.28625346
       65.56042       52.34817992        1.33508770
       65.66011       56.36316155        1.20813020
       65.75981       58.24860224        1.21596453
       65.85950       59.18236284        1.21788495
       65.95919       62.29660516        1.30811438
       66.05889       65.51646202        1.38771054
       66.15858       68.55547428        1.34996106
       66.25827       77.59603978        1.48568254
       66.35797       85.87205334        1.62842274
       66.45766       96.01222751        1.82994532
       66.55735      107.53484911        1.93658052
       66.65705      120.89153453        1.82187905
       66.75674      137.24642454        1.89232179
       66.85643      151.78626465        1.96803849
       66.95613      162.84269081        2.12002210
       67.05582      169.32456836        2.17837663
       67.15551      169.61121884        2.07475047
       67.25521      168.98321386        2.17380567
       67.35490      157.24329985        2.20699212
       67.45459      139.17036393        2.18883049
       67.55429      127.62729128        2.00796812
       67.65398      109.40005826        1.66575690
       67.75367       90.79707767        1.50443667
       67.85337       80.37586143        1.43252654
       67.95306       75.10907917        1.48056452
       68.05275       75.32229404        1.40393111
       68.15245       79.55670299        1.43058068
       68.25214       84.78698698        1.56767453
       68.35184       95.46029713        1.73406647
       68.45153       98.59815522        1.94012122
       68.55122      103.65792319        1.71383183
       68.65092      114.43851224        1.67889543
       68.75061      122.21092527        1.75320208
       68.85030      127.94003529        1.82866398
       68.95000      124.44834789        2.04454707
       69.04969      122.55614504        1.71344752
       69.14938      115.08645607        1.70712278
       69.24908      100.01205497        1.69884884
       69.34877       95.92859548        1.72080971
       69.44846       86.23280433        1.89201126
       69.54816       77.86271119        1.40146986
       69.64785       65.98776813        1.27160520
       69.74754       61.75653427        1.24242050
       69.84724       55.23128493        1.20535016
       69.94693       54.63271328        1.35291103
       70.04662       49.33964088        1.05709916
       70.14632       49.00341144        1.09547554
       70.24601       48.23063351        1.16364431
       70.34570       46.10698845        1.20385466
       70.44540       48.09547545        1.44879042
       70.54509       45.79944771        1.10652868
       70.64478       47.05805381        1.12008445
       70.74448       48.00145259        1.14922514
       70.84417       51.17459248        1.23145571
       70.94386       48.72864614        1.31897778
       71.04356       48.60837537        1.09009848
       71.14325       49.78212985        1.14644818
       71.24294       54.16677337        1.25844363
       71.34264       52.98453074        1.31968513
       71.44233       55.32417252        1.50491227
       71.54202       52.07978170        1.18858387
       71.64172       52.40719793        1.15983351
       71.74141       52.81550197        1.14323068
       71.84110       48.55168308        1.13447870
       71.94080       51.55936638        1.27407804
       72.04049       51.28403529        1.07548802
       72.14019       52.36929709        1.13239353
       72.23988       51.07653333        1.17006698
       72.33957       51.72336151        1.31525206
       72.43927       51.38354377        1.44304717
       72.53896       53.33380944        1.17884655
       72.63865       52.78219695        1.14627247
       72.73835       54.76532156        1.14200815
       72.83804       57.39596349        1.23465712
       72.93773       55.88856099        1.29407011
       73.03743       60.27237137        1.16666928
       73.13712       61.34026208        1.24123897
       73.23681       62.76330968        1.31913938
       73.33651       65.76900594        1.48602595
       73.43620       66.33274032        1.61649115
       73.53589       63.57923664        1.27653123
       73.63559       65.11387993        1.27162844
       73.73528       64.36593813        1.25852632
       73.83497       64.70441530        1.33776577
       73.93467       67.10278322        1.43465939
       74.03436       64.31718010        1.24291564
       74.13405       65.19280737        1.30458966
       74.23375       64.71276605        1.35388223
       74.33344       66.12468415        1.50668574
       74.43313       65.01591054        1.55020413
       74.53283       66.62965656        1.33343649
       74.63252       66.63819539        1.32385636
       74.73221       71.46373091        1.36447324
       74.83191       74.60497197        1.47904503
       74.93160       78.94408065        1.53880123
       75.03129       79.30411424        1.37113648
       75.13099       83.29310622        1.45565104
       75.23068       89.33849974        1.57273751
       75.33037       92.34985289        1.75774309
       75.43007       99.61479906        1.85226745
       75.52976      105.10251414        1.65275437
       75.62945      114.87209814        1.72677701
       75.72915      122.54096030        1.77673814
       75.82884      132.32771293        1.98842275
       75.92854      130.92213062        1.85649285
       76.02823      139.33805863        1.79666812
       76.12792      149.66677061        1.94687711
       76.22762      151.44521530        2.06632896
       76.32731      150.60076771        2.32709093
       76.42700      149.68530255        2.18959839
       76.52670      148.71211477        2.01339196
       76.62639      145.98270299        1.96949896
       76.72608      136.31246492        1.87103543
       76.82578      126.82369332        2.07894590
       76.92547      126.09366914        1.66036776
       77.02516      127.80027954        1.73262040
       77.12486      122.94386187        1.78485220
       77.22455      123.82838183        1.90731010
       77.32424      131.12036102        2.41174489
       77.42394      132.62943372        1.93681891
       77.52363      134.53937900        1.88512092
       77.62332      136.00733504        1.88674729
       77.72302      136.20308620        1.89232599
       77.82271      141.35994550        2.26120626
       77.92240      138.31614750        1.71255437
       78.02210      141.22175877        1.86741193
       78.12179      139.84342223        1.98466565
       78.22148      132.50140618        2.04240589
       78.32118      134.48309433        2.38781072
       78.42087      126.64154968        1.82321412
       78.52056      125.82699648        1.87676428
       78.62026      115.44475441        1.78301170
       78.71995      108.48831107        1.73392806
       78.81964      102.17890590        1.87928896
       78.91934       95.77488718        1.40957599
       79.01903       86.51000313        1.46834008
       79.11872       74.59339832        1.41843165
       79.21842       71.61363907        1.48249062
       79.31811       70.56141646        1.65754916
       79.41780       68.97887347        1.32937859
       79.51750       65.34713812        1.31458546
       79.61719       66.65282923        1.33162206
       79.71689       65.47778297        1.37024109
       79.81658       65.61968205        1.45409851
       79.91627       63.28367459        1.21033023
       80.01597       63.40817258        1.24527186
       80.11566       62.54642897        1.29284582
       80.21535       63.82275970        1.39608309
       80.31505       65.41232576        1.68024118
       80.41474       64.75050600        1.28454526
       80.51443       66.47374034        1.29590307
       80.61413       72.39910436        1.39756245
       80.71382       78.81967886        1.50879302
       80.81351       86.66672064        1.77824132
       80.91321       92.53114994        1.35516346
       81.01290      107.74208413        1.57924561
       81.11259      129.36977241        1.86886997
       81.21229      142.35368754        2.12093857
       81.31198      159.04367083        2.50166525
       81.41167      177.20201343        2.06821820
       81.51137      200.49702738        2.26426250
       81.61106      213.78076534        2.44177225
       81.71075      230.53791878        2.62524629
       81.81045      235.57700970        2.81139924
       81.91014      255.74406952        2.25332875
       82.00983      271.53244130        2.48242307
       82.10953      281.97027100        2.83044173
       82.20922      289.08723448        3.18773455
       82.30891      293.34684338        3.36734226
       82.40861      290.74038161        2.72580359
       82.50830      284.37997474        2.68826044
       82.60799      281.91807649        2.88302242
       82.70769      279.16274378        3.12184548
       82.80738      278.74236973        2.98053646
       82.90707      276.17241564        2.40903725
       83.00677      264.00874841        2.50897116
       83.10646      264.97542762        2.95818626
       83.20615      253.09419731        3.21733231
       83.30585      240.17541941        2.96839234
       83.40554      226.04762790        2.39373949
       83.50524      210.39078935        2.25289191
       83.60493      192.02860042        2.37036859
       83.70462      181.30710592        2.59689015
       83.80432      160.10052697        2.13154912
       83.90401      139.46201501        1.66814587
       84.00370      117.41193537        1.59562201
       84.10340      102.84070304        1.78391586
       84.20309       96.33039942        2.09579829
       84.30278       87.29373368        1.62214818
       84.40248       78.01537621        1.35307097
       84.50217       74.49941469        1.29703712
       84.60186       69.07899781        1.41200703
       84.70156       67.45718788        1.82582124
       84.80125       66.02139354        1.25749515
       84.90094       66.02722529        1.12968392
       85.00064       64.99328451        1.15472053
       85.10033       63.17586160        1.34725532
       85.20002       62.29648053        2.29446232
       85.29972       67.18042967        1.25711218
       85.39941       64.06670024        1.25149189
       85.49910       65.70358140        1.23256391
       85.59880       66.77527144        1.39728555
       85.69849       68.13161906        2.53407306
       85.79818       65.03459786        1.16713130
       85.89788       61.95548810        1.11182789
       85.99757       64.09611376        1.16206177
       86.09726       62.78907430        1.32048512
       86.19696       63.45370704        2.54962947
       86.29665       62.62118170        1.19858374
       86.39634       57.94203062        1.17274989
       86.49604       60.26911952        1.17807667
       86.59573       56.22673351        1.21222686
       86.69542       60.05437269        2.61971120
       86.79512       53.57041647        1.02685273
       86.89481       55.16166142        1.02736614
       86.99450       54.53302038        1.05880030
       87.09420       51.90353535        1.15192332
       87.19389       52.46475095        2.74340208
       87.29359       53.09874638        1.11855569
       87.39328       51.28734501        1.11409214
       87.49297       50.33375484        1.07139172
       87.59267       51.45109375        1.10456368
       87.69236       50.12179918        3.26201067
       87.79205       48.72688498        1.00187762
       87.89175       49.85253635        1.00526521
       87.99144       48.46305429        1.03274858
       88.09113       49.65184664        1.11111719
       88.19083       51.73415613        6.00199404
       88.29052       48.15677015        1.10109674
       88.39021       49.17907328        1.12018013
       88.48991       47.86547281        1.06055196
       88.58960       48.37930403        1.03256956
       88.68929       55.82070056        8.59441261
       88.78899       49.20004628        1.00511967
       88.88868       49.07829784        0.98194604
       88.98837       50.40641834        1.03509005
       89.08807       49.91239259        1.05498938
       89.18776       45.55177935        8.19917815
       89.28745       51.13614054        1.08498789
       89.38715       52.99244976        1.11592359
       89.48684       53.19284430        1.09411672
       89.58653       56.88377432        1.10859575
       89.68623       67.07713489        9.76274503
       89.78592       58.43929336        1.09188524
       89.88561       61.49342401        1.09818125
       89.98531       62.18785877        1.13243044
       90.08500       67.82824538        1.22682673
       90.18469       69.67913261       10.37119909
       90.28439       75.14063614        1.31909418
       90.38408       78.35713265        1.36976700
       90.48377       82.19861885        1.37675075
       90.58347       88.93469456        1.40983992
       90.68316       80.29184883       10.43148710
       90.78285       92.98061745        1.38007939
       90.88255       92.16961561        1.33695073
       90.98224       94.88920381        1.40363947
       91.08194       96.43896496        1.46156000
       91.18163      100.34216460       11.89812485
       91.28132       96.21187525        1.50303276
       91.38102       98.47003987        1.56104705
       91.48071       99.01110180        1.52694978
       91.58040       94.44551347        1.44207500
       91.68010       94.57460199       10.91728224
       91.77979       87.15326197        1.32948621
       91.87948       85.18354230        1.29399421
       91.97918       84.39208506        1.33740162
       92.07887       79.77016257        1.35424388
       92.17856       85.22887291       10.64537392
       92.27826       79.45048192        1.39583857
       92.37795       73.74652001        1.37642516
       92.47764       77.89689430        1.34310253
       92.57734       77.29042550        1.29783779
       92.67703       68.84705863        7.94893999
       92.77672       80.86727265        1.27962877
       92.87642       82.69980865        1.26941696
       92.97611       86.98910045        1.35966911
       93.07580       89.60406065        1.57511277
       93.17550       90.97359573        2.98450697
       93.27519       89.32920385        1.44957119
       93.37488       90.97902454        1.42212124
       93.47458       97.17560111        1.48623741
       93.57427       97.84479741        1.72422365
       93.67396      100.26217112        2.35894725
       93.77366       99.08513185        1.45266398
       93.87335       99.42352338        1.38996237
       93.97304       93.39945568        1.40365394
       94.07274       92.54031540        1.81390581
       94.17243       91.84328090        2.06184138
       94.27212       89.80095746        1.51841309
       94.37182       88.73700757        1.47099601
       94.47151       91.33206535        1.42932042
       94.57120       88.60172430        1.85777773
       94.67090       85.51471455        1.84606360
       94.77059       83.62515185        1.41904018
       94.87029       80.32034102        1.26448811
       94.96998       71.91500864        1.21130108
       95.06967       74.43830486        1.42078686
       95.16937       68.67657403        1.86775512
       95.26906       66.05390040        1.41494024
       95.36875       62.96634520        1.25341316
       95.46845       61.71672087        1.19252116
       95.56814       60.89796865        1.36305555
       95.66783       61.47097169        1.53854902
       95.76753       57.43212186        1.22875100
       95.86722       55.00361833        1.02277388
       95.96691       53.79791787        1.04913817
       96.06661       51.21049043        1.31113109
       96.16630       54.06874727        1.43682107
       96.26599       50.25801853        1.24388889
       96.36569       50.63192859        1.12027496
       96.46538       48.94390511        1.06292570
       96.56507       48.33430548        1.30370484
       96.66477       46.50425457        1.24600397
       96.76446       46.96138795        1.11892954
       96.86415       46.60787184        0.96554322
       96.96385       47.46914316        1.00645802
       97.06354       50.23523375        1.40016548
       97.16323       47.61169580        1.30323003
       97.26293       50.18043250        1.25709346
       97.36262       49.19330974        1.15256161
       97.46231       48.10296125        1.04847937
       97.56201       47.99671001        1.33244208
       97.66170       50.02510343        1.22189577
       97.76139       50.60028315        1.11646404
       97.86109       54.04793685        1.04351501
       97.96078       53.66059162        1.06246762
       98.06047       54.10098491        1.48181487
       98.16017       55.44438771        1.33359527
       98.25986       54.25485873        1.26002921
       98.35956       58.11061660        1.23129300
       98.45925       59.99513178        1.16784888
       98.55894       63.61725283        1.56892256
       98.65864       66.27888290        1.37415453
       98.75833       68.52572040        1.30564684
       98.85802       71.56553352        1.24598307
       98.95772       69.87158050        1.22285771
       99.05741       73.61581048        1.74274919
       99.15710       73.12276682        1.49370401
       99.25680       76.74208624        1.48268347
       99.35649       78.64686101        1.42965438
       99.45618       82.85522194        1.36769163
       99.55588       81.28331582        1.80996908
       99.65557       84.74945860        1.52489201
       99.75526       87.03975056        1.44853185
       99.85496       83.25427636        1.34818628
       99.95465       86.22597158        1.34525812
      100.05434       85.47696861        1.90803603
      100.15404       85.78922560        1.61007521
      100.25373       84.07905899        1.57476271
      100.35342       83.86466548        1.56659452
      100.45312       84.50358309        1.43498735
      100.55281       84.20639130        1.88139013
      100.65250       82.44197808        1.51645610
      100.75220       79.02362421        1.37507172
      100.85189       79.68075791        1.31936659
      100.95158       80.06263277        1.28720627
      101.05128       77.79808556        1.80888807
      101.15097       80.05948973        1.51669783
      101.25066       77.99492347        1.47895960
      101.35036       77.13309811        1.48347080
      101.45005       77.37670784        1.39722094
      101.54974       75.58674626        1.71991372
      101.64944       72.26102513        1.37186458
      101.74913       74.75744227        1.31484671
      101.84882       75.13430039        1.28313720
      101.94852       75.32326500        1.35332285
      102.04821       76.76875319        1.64567973
      102.14791       76.66336128        1.48211390
      102.24760       76.15597272        1.46470030
      102.34729       81.34604676        1.50788581
      102.44699       79.77572790        1.51914066
      102.54668       80.64019054        1.60272362
      102.64637       81.94046244        1.44299019
      102.74607       82.11976133        1.37576931
      102.84576       80.82338374        1.33888875
      102.94545       83.56650198        1.55074078
      103.04515       83.42888476        1.64029160
      103.14484       84.54010342        1.54276715
      103.24453       83.17206526        1.50655282
      103.34423       81.20673705        1.47649415
      103.44392       85.98387393        1.64603096
      103.54361       85.53132722        1.59479128
      103.64331       82.72895902        1.42756456
      103.74300       86.41854710        1.39191926
      103.84269       83.79019167        1.34673836
      103.94239       83.36768857        1.61429375
      104.04208       85.47921991        1.58149741
      104.14177       82.72573585        1.51352481
      104.24147       82.17357875        1.50766888
      104.34116       80.34318068        1.49994152
      104.44085       80.15329168        1.70154479
      104.54055       78.60234494        1.52550022
      104.64024       78.02989249        1.42870206
      104.73993       76.90283222        1.35342307
      104.83963       73.53743343        1.27493542
      104.93932       72.54393204        1.53506888
      105.03901       72.72503630        1.44822761
      105.13871       71.07439310        1.37847159
      105.23840       72.20766152        1.38867560
      105.33809       70.66382676        1.38178434
      105.43779       69.83141601        1.59821826
      105.53748       70.12902826        1.43633182
      105.63717       68.04689010        1.29677982
      105.73687       66.34395653        1.21851139
      105.83656       62.19355235        1.14943747
      105.93626       56.06862062        1.38274107
      106.03595       63.32407616        1.33217516
      106.13564       60.01421652        1.25332189
      106.23534       58.37434269        1.25122893
      106.33503       54.67319093        1.22298636
      106.43472       56.46893120        1.46949544
      106.53442       54.68207650        1.25770906
      106.63411       53.88094510        1.13407217
      106.73380       54.78468661        1.08993953
      106.83350       56.46334825        1.09005671
      106.93319       55.32569484        1.39869599
      107.03288       56.45685431        1.25230176
      107.13258       57.64491483        1.22830712
      107.23227       57.50382046        1.24460151
      107.33196       57.77257608        1.24409428
      107.43166       56.34466182        1.47617000
      107.53135       58.76145061        1.30077657
      107.63104       60.33400137        1.20024788
      107.73074       60.67461842        1.15479064
      107.83043       62.51179382        1.15740174
      107.93012       62.41101849        1.52985027
      108.02982       62.75046996        1.34266684
      108.12951       64.62253127        1.29581327
      108.22920       63.96395870        1.26849240
      108.32890       65.20569029        1.26859082
      108.42859       64.92240023        1.60652162
      108.52828       67.90583903        1.39383551
      108.62798       64.73762719        1.23389519
      108.72767       65.92078587        1.19515808
      108.82736       65.29474035        1.21565176
      108.92706       65.71668236        1.54460180
      109.02675       64.83895728        1.34217288
      109.12644       63.30412101        1.29431139
      109.22614       67.46610243        1.33742987
      109.32583       66.29841581        1.44465620
      109.42552       66.11981449        1.52177843
      109.52522       66.44269722        1.37630682
      109.62491       61.35495893        1.25775520
      109.72461       62.12910153        1.21008096
      109.82430       61.47588897        1.12439118
      109.92399       61.53029404        1.46256718
      110.02369       58.87113540        1.25268201
      110.12338       60.48545144        1.26153935
      110.22307       61.85795521        1.26628576
      110.32277       57.87259216        1.25055873
      110.42246       57.70935008        1.51838192
      110.52215       56.40182373        1.27130435
      110.62185       56.42453195        1.19839278
      110.72154       53.24319246        1.08594495
      110.82123       55.95539545        1.14984372
      110.92093       55.70417246        1.33806644
      111.02062       57.46205019        1.25561024
      111.12031       56.92624946        1.25905018
      111.22001       55.17401765        1.21622594
      111.31970       58.43223122        1.35851243
      111.41939       58.17895722        1.40268222
      111.51909       56.48036201        1.25397065
      111.61878       58.83997476        1.20578521
      111.71847       60.83853965        1.14081876
      111.81817       61.38567794        1.24376773
      111.91786       65.63589690        1.35366850
      112.01755       67.19902007        1.33750098
      112.11725       69.29841644        1.36862076
      112.21694       70.70106383        1.37626253
      112.31663       73.46889405        1.54612530
      112.41633       76.37781349        1.54883139
      112.51602       77.12197841        1.43325149
      112.61571       79.48776002        1.38813935
      112.71541       82.58486621        1.33355291
      112.81510       87.51078388        1.53949195
      112.91479       86.63527211        1.56029416
      113.01449       89.14051792        1.54999096
      113.11418       90.68173661        1.55819247
      113.21387       89.04558096        1.53695874
      113.31357       93.20314289        1.74656120
      113.41326       90.31043080        1.63371150
      113.51296       91.62857810        1.54799777
      113.61265       92.50711647        1.50085266
      113.71234       94.96699533        1.45263426
      113.81204       92.09886148        1.63870364
      113.91173       93.51567293        1.60018144
      114.01142       90.16185060        1.55521566
      114.11112       89.48146042        1.54847783
      114.21081       88.42078104        1.55034855
      114.31050       88.33952974        1.75734524
      114.41020       90.21947488        1.64117858
      114.50989       87.42288190        1.51226368
      114.60958       86.12276191        1.45245189
      114.70928       86.06296443        1.40036954
      114.80897       85.85605941        1.58635598
      114.90866       86.00544634        1.49756269
      115.00836       84.98228657        1.48161710
      115.10805       90.07854100        1.53397968
      115.20774       88.78523650        1.54590874
      115.30744       87.18890409        1.75884447
      115.40713       88.65770373        1.60654239
      115.50682       88.35169970        1.51406438
      115.60652       88.05278561        1.45672623
      115.70621       90.96267440        1.42310973
      115.80590       92.05519585        1.67018099
      115.90560       93.89999867        1.52898301
      116.00529       98.11186471        1.58057313
      116.10498       96.27638539        1.58197599
      116.20468       95.41981120        1.61103377
      116.30437      104.58419246        2.01120828
      116.40406      100.38964191        1.71593757
      116.50376      102.64743901        1.63981547
      116.60345      104.23943588        1.58634647
      116.70314      110.69402955        1.58549065
      116.80284      115.31393690        1.92309149
      116.90253      114.78898460        1.72594310
      117.00222      117.13065722        1.72981127
      117.10192      124.31723969        1.83029723
      117.20161      125.15444522        1.85886057
      117.30131      125.68845112        2.22913419
      117.40100      131.19349046        1.91500741
      117.50069      134.70516580        1.84320511
      117.60039      137.34570421        1.78132454
      117.70008      150.09680486        1.80484335
      117.79977      148.66179644        2.20093948
      117.89947      151.19675363        1.92975645
      117.99916      156.20687765        1.98520823
      118.09885      158.10552095        2.03481892
      118.19855      162.95219618        2.16403336
      118.29824      164.96584250        2.38712593
      118.39793      166.42884403        2.17702769
      118.49763      168.69482084        2.06841856
      118.59732      173.17461971        2.02367522
      118.69701      179.98518683        2.14971467
      118.79671      177.73784439        2.30647225
      118.89640      175.96285513        2.13955360
      118.99609      175.48186737        2.13430454
      119.09579      175.49420788        2.15925903
      119.19548      181.24311050        2.39815583
      119.29517      178.83347838        2.47467449
      119.39487      175.69404072        2.25457738
      119.49456      177.20629684        2.13387573
      119.59425      169.07530160        2.02365625
      119.69395      169.13847001        2.13537409
      119.79364      162.19576808        2.11279602
      119.89333      159.41356688        2.02699430
      119.99303      151.99700733        1.93198062
      120.09272      152.41718515        1.97877077
      120.19241      150.11445994        2.20713474
      120.29211      143.85212432        2.13810522
      120.39180      145.36693799        2.05066702
      120.49149      135.58487822        1.84130233
      120.59119      131.86192805        1.76224868
      120.69088      126.65470999        1.85889549
      120.79057      125.88457348        1.81340062
      120.89027      122.70846898        1.75753935
      120.98996      123.73496675        1.75137310
      121.08966      123.49133923        1.76273184
      121.18935      118.00854955        1.97480364
      121.28904      118.22240043        1.92649906
      121.38874      119.35923260        1.83059330
      121.48843      115.49482807        1.70056019
      121.58812      115.64860494        1.62299378
      121.68782      115.58759019        1.79752394
      121.78751      113.81301308        1.69956151
      121.88720      113.95736006        1.67890317
      121.98690      114.33936189        1.69433853
      122.08659      111.66148902        1.70775022
      122.18628      113.31714233        1.99584100
      122.28598      108.35658425        1.83500689
      122.38567      108.37983275        1.75763882
      122.48536      109.37969913        1.67031946
      122.58506      109.41080415        1.58219541
      122.68475      107.26823701        1.77513727
      122.78444      106.81197867        1.66790198
      122.88414      108.03043736        1.66322081
      122.98383      105.21215792        1.67484824
      123.08352      103.34655789        1.64563082
      123.18322      101.85176423        1.90529550
      123.28291      104.86091522        1.75720250
      123.38260      101.35063544        1.66750101
      123.48230      103.02643560        1.62048652
      123.58199      100.90020563        1.49880246
      123.68168      100.80246363        1.70945517
      123.78138       95.99552094        1.50480126
      123.88107       93.53975867        1.45095885
      123.98076       90.71389214        1.45516118
      124.08046       89.65019196        1.43130908
      124.18015       91.35467364        1.63547003
      124.27984       89.72389505        1.45205354
      124.37954       85.71402792        1.33904695
      124.47923       83.94813275        1.29363212
      124.57892       80.55605248        1.34993920
