        5.04651       54.93862824        2.52769844
        5.14621       50.04087413        2.32455184
        5.24590       50.04291392        2.29126391
        5.34559       50.47128339        2.11047331
        5.44529       47.20544810        2.22022203
        5.54498       55.35706261        2.02301647
        5.64467       51.13045893        1.92697246
        5.74437       52.67988355        1.76570955
        5.84406       49.25111010        1.72755468
        5.94375       49.87971471        1.73625251
        6.04345       50.21389960        1.69275680
        6.14314       49.83010838        1.54395356
        6.24283       47.68628457        1.56011637
        6.34253       50.63070553        1.53344002
        6.44222       47.45539962        1.56303079
        6.54191       49.55230175        1.51320400
        6.64161       48.26047704        1.41464273
        6.74130       48.33223692        1.42141593
        6.84099       49.14382571        1.42296372
        6.94069       48.33550354        1.43242189
        7.04038       45.65934334        1.28498304
        7.14007       49.89707267        1.34070607
        7.23977       48.53688538        1.29912500
        7.33946       47.41619112        1.30364295
        7.43915       45.81370275        1.26463209
        7.53885       46.05085157        1.24451787
        7.63854       46.89781980        1.20040666
        7.73823       46.66429716        1.24333621
        7.83793       49.40135885        1.23809369
        7.93762       46.23459396        1.24929038
        8.03732       48.75940446        1.15068387
        8.13701       46.60303281        1.11978874
        8.23670       47.62324722        1.14799347
        8.33640       46.65330144        1.13651591
        8.43609       48.21585331        1.20798070
        8.53578       48.07236857        1.12348239
        8.63548       47.15899781        1.09993305
        8.73517       48.32707878        1.09229465
        8.83486       45.99332093        1.06810153
        8.93456       48.20372907        1.08793510
        9.03425       48.18705045        1.05589383
        9.13394       47.63148022        1.05174510
        9.23364       46.91723352        1.05904410
        9.33333       46.50971373        1.07588765
        9.43302       48.37462573        1.09772613
        9.53272       46.43177016        1.03905037
        9.63241       48.07974298        1.08727758
        9.73210       47.49516292        1.07845919
        9.83180       46.46318861        1.11143095
        9.93149       47.15143281        1.11164492
       10.03118       47.43502063        1.07283727
       10.13088       46.79716256        1.04004233
       10.23057       45.93136372        1.07898110
       10.33026       48.23052396        1.14297536
       10.42996       47.25654340        1.11583598
       10.52965       47.73181696        1.08607343
       10.62934       46.78532280        1.07779883
       10.72904       47.05336875        1.09687782
       10.82873       49.08834007        1.11478004
       10.92842       48.99453782        1.13237863
       11.02812       48.94757764        1.07831062
       11.12781       48.52219667        1.11210871
       11.22750       48.92645892        1.12787370
       11.32720       51.41143240        1.18736315
       11.42689       49.71836248        1.12706996
       11.52658       51.94903884        1.13843550
       11.62628       52.64714915        1.15852300
       11.72597       55.46843710        1.21453785
       11.82567       57.49527214        1.27100465
       11.92536       61.96373333        1.23498045
       12.02505       67.82174634        1.29832266
       12.12475       70.38855135        1.32157897
       12.22444       83.05192144        1.52287680
       12.32413       92.31021721        1.63044527
       12.42383      103.28260891        1.63744204
       12.52352      120.24365173        1.75664489
       12.62321      141.29654905        1.95925898
       12.72291      162.98824330        2.04853545
       12.82260      185.23453272        2.37482512
       12.92229      208.55195685        2.28948155
       13.02199      237.83414074        2.42671811
       13.12168      264.63709403        2.60503684
       13.22137      287.80749202        2.80504629
       13.32107      316.85402953        3.03883816
       13.42076      347.43659057        3.06419293
       13.52045      361.96471223        3.16508398
       13.62015      368.59250258        3.09560950
       13.71984      343.78281055        3.11407013
       13.81953      314.64216578        3.02876673
       13.91923      281.67674586        2.69156475
       14.01892      219.66100092        2.31260067
       14.11861      173.63247693        2.14468776
       14.21831      131.52832256        1.86754835
       14.31800      107.20939947        1.77474255
       14.41769       82.30061041        1.49694564
       14.51739       70.00539491        1.34676919
       14.61708       59.29340096        1.24232299
       14.71677       55.41368708        1.22053566
       14.81647       51.60832946        1.23380510
       14.91616       49.90505671        1.11569970
       15.01585       48.87624831        1.12401094
       15.11555       46.73504650        1.11177094
       15.21524       47.66844044        1.15727468
       15.31493       49.67951226        1.21001043
       15.41463       47.93437759        1.15073281
       15.51432       45.56299778        1.08705477
       15.61402       48.89674259        1.15477308
       15.71371       48.49729446        1.14213099
       15.81340       48.85455444        1.19253401
       15.91310       47.98857329        1.14838268
       16.01279       46.17683434        1.07854029
       16.11248       48.82932867        1.13897420
       16.21218       48.80964626        1.17030093
       16.31187       47.94198820        1.16265291
       16.41156       48.98593173        1.15340192
       16.51126       49.05007641        1.17367446
       16.61095       50.57180266        1.14917262
       16.71064       49.83444688        1.17680003
       16.81034       52.42355043        1.21074577
       16.91003       53.23569080        1.18493537
       17.00972       53.82350556        1.14381781
       17.10942       57.73708827        1.25229455
       17.20911       60.26068965        1.29076691
       17.30880       64.32687211        1.34535142
       17.40850       67.86522920        1.38167362
       17.50819       73.32699447        1.39479527
       17.60788       73.38156188        1.43862697
       17.70758       76.72453804        1.47726459
       17.80727       74.56396269        1.47418440
       17.90696       70.96335322        1.34447449
       18.00666       69.53830109        1.35421726
       18.10635       63.15058822        1.25499172
       18.20604       60.04734486        1.34237240
       18.30574       58.47096282        1.26240470
       18.40543       54.33073759        1.18661330
       18.50512       54.02118182        1.22055979
       18.60482       51.96090360        1.17819905
       18.70451       56.00832249        1.29284081
       18.80420       53.79638935        1.19021574
       18.90390       48.98202728        1.12339580
       19.00359       49.99009170        1.10526991
       19.10328       48.97080088        1.15733826
       19.20298       47.44649909        1.17456801
       19.30267       47.40410026        1.12745565
       19.40237       45.11035005        1.08730466
       19.50206       46.82115405        1.13564965
       19.60175       45.68107147        1.10911533
       19.70145       45.14295178        1.15611811
       19.80114       46.18214774        1.10909833
       19.90083       46.93798480        1.08037957
       20.00053       47.64635652        1.10784300
       20.10022       49.68909669        1.13982664
       20.19991       46.24096972        1.17541676
       20.29961       47.54322836        1.12933899
       20.39930       49.13867279        1.18288208
       20.49899       50.36006307        1.17673936
       20.59869       51.41091351        1.21073661
       20.69838       52.86876369        1.27312406
       20.79807       52.36578961        1.20849408
       20.89777       54.08646384        1.20047564
       20.99746       57.71156514        1.25254330
       21.09715       57.11627624        1.31247798
       21.19685       55.86263279        1.29117198
       21.29654       55.25992298        1.25269130
       21.39623       56.14467415        1.26278524
       21.49593       57.30071378        1.25753713
       21.59562       53.89334205        1.24879242
       21.69531       53.26111786        1.29123928
       21.79501       47.31035244        1.11305127
       21.89470       45.98719745        1.07263350
       21.99439       46.00078026        1.11827637
       22.09409       46.98349907        1.13299787
       22.19378       46.66241132        1.19910119
       22.29347       44.98594163        1.09646630
       22.39317       46.52774465        1.14404716
       22.49286       47.02558828        1.14925233
       22.59255       45.76608768        1.14703753
       22.69225       47.56774008        1.23239034
       22.79194       50.33220781        1.13861967
       22.89163       51.43698467        1.12858659
       22.99133       56.04541178        1.21092461
       23.09102       59.92284156        1.30054945
       23.19072       64.62318126        1.35400371
       23.29041       67.57393959        1.36747406
       23.39010       70.10645609        1.40758049
       23.48980       67.33076776        1.38430725
       23.58949       66.12080716        1.39014949
       23.68918       60.44737155        1.39743016
       23.78888       58.94201873        1.22971888
       23.88857       52.60295358        1.17665112
       23.98826       47.43718173        1.14213452
       24.08796       46.65085500        1.11053006
       24.18765       45.50395344        1.17517531
       24.28734       45.30280780        1.11639842
       24.38704       47.29161649        1.15978568
       24.48673       44.09337219        1.11575151
       24.58642       44.55619607        1.15872221
       24.68612       43.41817185        1.14227174
       24.78581       45.00496211        1.07210957
       24.88550       44.25626672        1.06269298
       24.98520       45.06723765        1.11208487
       25.08489       46.96852981        1.15804707
       25.18458       46.72166370        1.17925164
       25.28428       45.80159508        1.12530405
       25.38397       48.13928072        1.14815465
       25.48366       51.00601988        1.18903733
       25.58336       54.06253978        1.27605957
       25.68305       62.95153810        1.35090050
       25.78274       67.93260043        1.32462362
       25.88244       83.90534483        1.50992624
       25.98213      104.08457347        1.69621222
       26.08182      128.51752520        1.93521489
       26.18152      152.13763251        2.15735675
       26.28121      176.13411276        2.19659315
       26.38090      196.71186465        2.34195204
       26.48060      200.35775067        2.42897264
       26.58029      189.84859594        2.46616885
       26.67998      171.74289805        2.21482487
       26.77968      144.22925866        2.00464434
       26.87937      112.24574695        1.74206886
       26.97907       91.80232819        1.56177877
       27.07876       80.49169261        1.57432917
       27.17845       75.59775959        1.45787464
       27.27815       75.47441268        1.42253539
       27.37784       82.52993462        1.54584484
       27.47753       84.28921714        1.53923324
       27.57723       87.64866040        1.64443835
       27.67692       84.93704316        1.57995292
       27.77661       77.99242742        1.44475757
       27.87631       67.17223206        1.31812607
       27.97600       62.93708037        1.30456660
       28.07569       57.22857724        1.31642880
       28.17539       52.99466674        1.21259712
       28.27508       48.59569770        1.16152744
       28.37477       48.42376306        1.18706278
       28.47447       49.13342460        1.18642044
       28.57416       50.06874231        1.29485713
       28.67385       48.86250284        1.13799801
       28.77355       53.72310882        1.17191906
       28.87324       56.71187796        1.23626839
       28.97293       55.60328122        1.22693045
       29.07263       57.57648948        1.36103315
       29.17232       57.06519687        1.23651257
       29.27201       53.93544241        1.22420606
       29.37171       53.58558706        1.25525363
       29.47140       51.98472361        1.22203145
       29.57109       49.07072026        1.25887745
       29.67079       47.31600313        1.12532545
       29.77048       47.41241240        1.12908909
       29.87017       45.96459063        1.08984029
       29.96987       46.57290801        1.15028982
       30.06956       47.54629291        1.19911240
       30.16925       45.37456079        1.10286717
       30.26895       45.76789767        1.11188372
       30.36864       46.50240298        1.13911487
       30.46833       49.91190142        1.19223519
       30.56803       53.37520717        1.30251119
       30.66772       56.18034034        1.24363807
       30.76742       60.42756802        1.26414635
       30.86711       64.71903824        1.33452206
       30.96680       62.68517401        1.32087350
       31.06650       62.81019791        1.38639263
       31.16619       61.82436833        1.29323161
       31.26588       57.54958896        1.24004728
       31.36558       57.78642689        1.25888521
       31.46527       55.22962531        1.28046522
       31.56496       58.81191605        1.34272423
       31.66466       63.83593881        1.30845233
       31.76435       72.03713655        1.38887997
       31.86404       79.66670049        1.44168209
       31.96374       84.59487463        1.52024757
       32.06343       87.79536441        1.60285406
       32.16312       89.86671234        1.52412718
       32.26282       82.37584827        1.49454615
       32.36251       76.85395952        1.50113817
       32.46220       71.82606378        1.47705102
       32.56190       67.68770566        1.45914475
       32.66159       64.92161753        1.35695897
       32.76128       65.82565857        1.33577240
       32.86098       65.19445900        1.34929035
       32.96067       64.41233899        1.35793972
       33.06036       57.01174540        1.30052432
       33.16006       58.76408050        1.24353622
       33.25975       55.88120731        1.25191832
       33.35944       57.40521720        1.27581991
       33.45914       54.53772210        1.29071682
       33.55883       56.26451050        1.31413770
       33.65852       62.24416507        1.28914905
       33.75822       65.24899976        1.31769914
       33.85791       73.59085525        1.40540740
       33.95760       84.07483138        1.54696078
       34.05730       92.33516450        1.60567004
       34.15699      104.59837681        1.68221201
       34.25668      120.72933428        1.80149272
       34.35638      150.16498674        2.06220703
       34.45607      189.00946358        2.43813283
       34.55577      230.99905663        2.56954796
       34.65546      291.39874978        2.76918303
       34.75515      363.90475141        3.15547328
       34.85485      416.79202132        3.35223808
       34.95454      449.57507803        3.59281678
       35.05423      433.50151337        3.64792597
       35.15393      386.71563910        3.23416165
       35.25362      319.56992418        2.98443343
       35.35331      251.39061098        2.71449547
       35.45301      187.33752523        2.44336445
       35.55270      144.03837981        2.08512878
       35.65239      106.23785681        1.72838772
       35.75209       88.62450169        1.56662197
       35.85178       80.49032115        1.49075633
       35.95147       71.48729518        1.43762037
       36.05117       70.38064732        1.39709012
       36.15086       65.74547808        1.29818482
       36.25055       62.21909214        1.31928563
       36.35025       63.09894693        1.35465955
       36.44994       57.71674059        1.32125618
       36.54963       58.76886794        1.27991184
       36.64933       58.11170538        1.25371740
       36.74902       53.91344797        1.22002096
       36.84871       54.61532078        1.21910863
       36.94841       54.60007500        1.31820845
       37.04810       50.25618141        1.11496259
       37.14779       51.66454738        1.15371593
       37.24749       46.38347086        1.12336097
       37.34718       48.66151525        1.18006251
       37.44687       48.00846688        1.25905710
       37.54657       48.23612953        1.15216802
       37.64626       47.42161517        1.13798588
       37.74595       46.80857372        1.11290474
       37.84565       47.06793057        1.18082235
       37.94534       47.81790989        1.21253684
       38.04503       46.60570204        1.08189572
       38.14473       47.51053158        1.10308744
       38.24442       49.04466942        1.14130055
       38.34412       48.03417104        1.18081554
       38.44381       49.57680676        1.29721737
       38.54350       48.64869618        1.14544221
       38.64320       50.73022408        1.16623068
       38.74289       51.00886152        1.18473544
       38.84258       51.44888655        1.19273003
       38.94228       56.21049977        1.30784508
       39.04197       59.46828453        1.21311863
       39.14166       62.01757730        1.28881245
       39.24136       68.46045432        1.35073648
       39.34105       69.32371343        1.40664886
       39.44074       68.82345988        1.52874376
       39.54044       72.39226383        1.40206897
       39.64013       69.41644843        1.36862076
       39.73982       68.75613056        1.36759711
       39.83952       65.30458610        1.32367774
       39.93921       61.66857442        1.36372745
       40.03890       58.15426755        1.21207252
       40.13860       58.61335739        1.21529740
       40.23829       58.22798643        1.25413230
       40.33798       55.41345593        1.26146003
       40.43768       55.42689569        1.31999140
       40.53737       57.39843419        1.24680695
       40.63706       56.28599759        1.26053938
       40.73676       59.51103566        1.29423740
       40.83645       58.78555043        1.29702871
       40.93614       62.12398967        1.35584385
       41.03584       66.76608628        1.32295174
       41.13553       76.95095193        1.42227070
       41.23522       92.16626991        1.59490355
       41.33492      114.67538673        1.86320964
       41.43461      132.81341477        2.06990382
       41.53430      161.62085672        2.13951537
       41.63400      190.68602980        2.37592081
       41.73369      210.02724786        2.43982919
       41.83338      210.59748120        2.50807995
       41.93308      220.07562016        2.54181925
       42.03277      221.17779578        2.32891530
       42.13247      248.67243207        2.59679881
       42.23216      294.22066037        2.83135236
       42.33185      351.26012598        3.32231289
       42.43155      416.45840678        3.56601346
       42.53124      483.32794523        3.72154749
       42.63093      527.28926245        3.89508921
       42.73063      543.18204021        3.97112662
       42.83032      528.52857136        3.98606340
       42.93001      501.19002124        3.73617403
       43.02971      422.64233854        3.23872608
       43.12940      345.48272203        2.98646654
       43.22909      263.52961101        2.73929374
       43.32879      199.26298879        2.50750744
       43.42848      152.09612699        2.14135566
       43.52817      113.84074730        1.77144496
       43.62787       87.74434871        1.54928450
       43.72756       76.15487252        1.47722621
       43.82725       66.15158633        1.43727793
       43.92695       63.43246332        1.27622664
       44.02664       61.02311801        1.24570058
       44.12633       58.05065612        1.26015411
       44.22603       54.41742121        1.26977935
       44.32572       57.48039102        1.37559609
       44.42541       51.98622762        1.24876832
       44.52511       54.95654118        1.24954391
       44.62480       55.06015022        1.26840602
       44.72449       55.79515803        1.23739157
       44.82419       58.93239940        1.42712207
       44.92388       66.10487130        1.26084911
       45.02357       75.14582384        1.35562245
       45.12327       88.57207118        1.51637709
       45.22296      104.24103582        1.68882975
       45.32265      127.77324179        2.06925879
       45.42235      153.79688041        2.06804969
       45.52204      176.52457950        2.19385752
       45.62174      206.29816346        2.41594255
       45.72143      221.85131117        2.50552841
       45.82112      225.72009184        2.76636179
       45.92082      239.43382629        2.41984124
       46.02051      232.42076584        2.43455010
       46.12020      227.46872286        2.41627202
       46.21990      214.71981892        2.46645487
       46.31959      202.09873714        2.58369986
       46.41928      181.68668217        2.26195006
       46.51898      153.71761147        2.09108741
       46.61867      125.86209885        1.88159747
       46.71836      103.38145400        1.74830777
       46.81806       87.61917861        1.66835844
       46.91775       70.89459625        1.30751439
       47.01744       62.57332018        1.25737492
       47.11714       65.08134724        1.31172730
       47.21683       71.17265528        1.41237032
       47.31652       78.22248462        1.61559724
       47.41622       86.38467789        1.60019353
       47.51591      101.19123397        1.73559108
       47.61560      114.09120966        1.82775399
       47.71530      131.32811239        1.98268245
       47.81499      146.39837444        2.14652076
       47.91468      158.91159664        1.95669715
       48.01438      170.76732669        2.02971781
       48.11407      168.93722123        2.09402319
       48.21376      171.80349397        2.20500948
       48.31346      167.82751421        2.25688928
       48.41315      157.29264897        2.03623773
       48.51284      143.42196282        2.00869426
       48.61254      128.81473586        1.89557171
       48.71223      106.41592684        1.75332978
       48.81192       86.85529554        1.57955336
       48.91162       75.56903036        1.32051037
       49.01131       63.89765475        1.25646950
       49.11100       58.18515682        1.24201172
       49.21070       54.37508278        1.26040866
       49.31039       53.09313509        1.28176137
       49.41009       47.43997674        1.14436224
       49.50978       49.22898601        1.18993760
       49.60947       48.72805146        1.19251312
       49.70917       51.11343527        1.26674708
       49.80886       48.49306967        1.20073041
       49.90855       48.36725250        1.09236360
       50.00825       50.72019387        1.14234018
       50.10794       49.67617087        1.15620845
       50.20763       49.68970147        1.20813533
       50.30733       55.66906354        1.33976881
       50.40702       53.36926053        1.23006474
       50.50671       53.58390574        1.23616475
       50.60641       57.63409501        1.28403123
       50.70610       56.71807377        1.31063683
       50.80579       57.97457164        1.30764661
       50.90549       56.17850157        1.16047489
       51.00518       58.08638263        1.19055772
       51.10487       55.32921969        1.20099007
       51.20457       53.72529832        1.25982229
       51.30426       55.02095981        1.26834893
       51.40395       55.25958772        1.21857441
       51.50365       57.59527043        1.25837298
       51.60334       59.93640917        1.30915320
       51.70303       60.62883128        1.39828882
       51.80273       58.45639099        1.25932363
       51.90242       59.69831854        1.18908331
       52.00211       63.11467620        1.22856335
       52.10181       61.54195918        1.25148738
       52.20150       63.95051385        1.40505904
       52.30119       62.96071442        1.34292993
       52.40089       60.48469114        1.29553501
       52.50058       61.73286712        1.33361892
       52.60027       63.62499677        1.37248625
       52.69997       60.43738817        1.46579513
       52.79966       60.01866983        1.22804513
       52.89935       63.11330685        1.21521304
       52.99905       73.60428707        1.33420509
       53.09874       86.56115844        1.49405076
       53.19844       96.43885436        1.80623623
       53.29813      112.10732891        1.73130078
       53.39782      120.81701565        1.85947240
       53.49752      135.33679542        1.97761842
       53.59721      142.32267605        2.02665895
       53.69690      147.14109688        2.26125300
       53.79660      153.50540816        1.93507338
       53.89629      148.73954140        1.88394230
       53.99598      145.05559593        1.90581201
       54.09568      135.01911259        1.91965567
       54.19537      122.76472746        1.99575201
       54.29506      113.67866907        1.76400609
       54.39476      104.10792420        1.70084234
       54.49445       95.18717113        1.62713864
       54.59414       88.51315575        1.59267211
       54.69384       87.61852393        1.69045433
       54.79353       88.38514432        1.45602054
       54.89322       81.74224842        1.39489597
       54.99292       76.87567596        1.39214241
       55.09261       75.05093622        1.43041114
       55.19230       69.77706865        1.48091576
       55.29200       67.66067921        1.35722646
       55.39169       62.31033557        1.34369221
       55.49138       55.18251476        1.25952125
       55.59108       58.27571468        1.33601016
       55.69077       55.81832064        1.34177403
       55.79046       55.17215576        1.16625133
       55.89016       55.25038765        1.16429277
       55.98985       56.71404712        1.18723650
       56.08954       59.62703068        1.25758566
       56.18924       65.94711306        1.42760418
       56.28893       71.85161422        1.36403588
       56.38862       82.14757454        1.50906293
       56.48832       96.17223107        1.66151350
       56.58801      105.86350759        1.79401747
       56.68770      111.96960141        1.90450032
       56.78740      116.88032829        1.66550678
       56.88709      113.71447575        1.65901307
       56.98679      106.72967474        1.60839319
       57.08648       96.25231653        1.61871989
       57.18617       86.52207866        1.58873887
       57.28587       74.89125600        1.38061227
       57.38556       68.27059600        1.40301058
       57.48525       60.65579903        1.34758172
       57.58495       55.42883980        1.31753980
       57.68464       52.06618753        1.28795839
       57.78433       53.95759774        1.14707383
       57.88403       52.91859393        1.14917774
       57.98372       50.72419207        1.14292612
       58.08341       51.32071247        1.24303966
       58.18311       52.61556162        1.28754779
       58.28280       53.05697071        1.21782234
       58.38249       50.73377745        1.24423657
       58.48219       51.79243261        1.28434534
       58.58188       51.76039457        1.29798835
       58.68157       52.63987613        1.28271822
       58.78127       52.93065149        1.12510315
       58.88096       53.75765164        1.11716121
       58.98065       55.50522315        1.17847073
       59.08035       56.00288393        1.26313393
       59.18004       60.61180053        1.33322621
       59.27973       57.52552231        1.22529651
       59.37943       63.58122938        1.33090856
       59.47912       68.58325625        1.43915569
       59.57881       72.65831596        1.55196442
       59.67851       76.08435076        1.48075073
       59.77820       84.12064301        1.43163127
       59.87789       91.16469469        1.48531736
       59.97759       99.22767424        1.62134000
       60.07728      104.49086002        1.80196837
       60.17697      106.75422303        1.73518567
       60.27667      107.71786126        1.69464973
       60.37636      107.85414778        1.72862263
       60.47605      105.51099111        1.78354424
       60.57575      100.83466393        1.91061795
       60.67544       97.18557628        1.61137267
       60.77514       87.74023298        1.45517425
       60.87483       77.48865607        1.34060561
       60.97452       73.11643770        1.37175623
       61.07422       67.25744222        1.47770530
       61.17391       65.63514208        1.26444372
       61.27360       63.39463297        1.28670130
       61.37330       67.41768637        1.37630627
       61.47299       68.78083612        1.45131477
       61.57268       67.58674677        1.63594514
       61.67238       71.32425864        1.36988181
       61.77207       70.90262500        1.33019509
       61.87176       69.61378961        1.30330549
       61.97146       71.13870810        1.36792303
       62.07115       69.19392500        1.52783681
       62.17084       69.83272376        1.34476931
       62.27054       66.80976715        1.37134104
       62.37023       69.29493356        1.45237817
       62.46992       67.99759713        1.48796081
       62.56962       66.60646991        1.65393787
       62.66931       70.08523873        1.36691752
       62.76900       74.00047718        1.36918387
       62.86870       83.41638940        1.42237997
       62.96839       92.85539565        1.54900119
       63.06808       98.71867468        1.77766547
       63.16778      103.92356487        1.61925817
       63.26747      109.84198739        1.72295236
       63.36716      115.96980415        1.83751699
       63.46686      119.08848663        1.91801148
       63.56655      125.75102628        2.09424356
       63.66624      129.87844563        1.80910662
       63.76594      146.14060531        1.86493786
       63.86563      162.51130431        1.96143190
       63.96532      167.69652947        2.08513005
       64.06502      177.33368256        2.29779571
       64.16471      172.21457972        2.09417520
       64.26440      164.34668001        2.12932332
       64.36410      153.31500142        2.09768445
       64.46379      135.52608911        2.08483574
       64.56349      121.16798521        2.00569192
       64.66318      101.66559003        1.60720769
       64.76287       83.91969662        1.44154111
       64.86257       75.44445048        1.36448016
       64.96226       62.00944720        1.29522472
       65.06195       57.94195420        1.35367988
       65.16165       55.34233381        1.19332882
       65.26134       53.38283916        1.19937267
       65.36103       56.07602855        1.28282392
       65.46073       54.18998466        1.30241312
       65.56042       54.59629424        1.36540038
       65.66011       56.43042317        1.21048274
       65.75981       58.97292934        1.22518130
       65.85950       58.69612413        1.21448489
       65.95919       64.33375953        1.33121666
       66.05889       64.62724623        1.38007418
       66.15858       69.54494774        1.36154638
       66.25827       80.85547754        1.51877931
       66.35797       82.90510858        1.60202841
       66.45766       97.76314253        1.84915012
       66.55735      106.86243257        1.93306412
       66.65705      123.31027877        1.84263881
       66.75674      143.45670800        1.93767472
       66.85643      152.52820823        1.97553459
       66.95613      162.33089206        2.11948080
       67.05582      172.49267633        2.20184500
       67.15551      169.39390136        2.07617709
       67.25521      166.24537174        2.15879990
       67.35490      156.51166281        2.20474120
       67.45459      137.39892409        2.17763414
       67.55429      125.35787756        1.99254629
       67.65398      106.95928163        1.64913984
       67.75367       90.42005282        1.50330850
       67.85337       81.00299765        1.44007065
       67.95306       77.14316587        1.50260497
       68.05275       79.49822287        1.44447764
       68.15245       81.81913069        1.45284684
       68.25214       86.34485480        1.58422526
       68.35184       94.34395243        1.72614649
       68.45153      100.33585645        1.95988984
       68.55122      105.50870857        1.73150062
       68.65092      117.07259748        1.70054268
       68.75061      127.33664524        1.79231295
       68.85030      129.49188172        1.84228841
       68.95000      129.56043876        2.08928883
       69.04969      123.03932105        1.71915439
       69.14938      111.88034633        1.68524545
       69.24908      103.28556610        1.72894557
       69.34877       89.82798910        1.66707375
       69.44846       86.25676430        1.89482066
       69.54816       78.19319478        1.40634708
       69.64785       67.51609832        1.28804799
       69.74754       61.41547971        1.24063903
       69.84724       55.00158062        1.20445239
       69.94693       53.35970864        1.33879830
       70.04662       50.55077899        1.07148315
       70.14632       48.62316881        1.09267370
       70.24601       48.48126117        1.16824716
       70.34570       48.14164618        1.23187756
       70.44540       48.62132902        1.45868072
       70.54509       47.56454703        1.12924073
       70.64478       49.49770422        1.15039998
       70.74448       48.85568767        1.16100408
       70.84417       50.70649108        1.22744272
       70.94386       51.37544309        1.35627857
       71.04356       50.74084952        1.11533891
       71.14325       52.91510599        1.18369707
       71.24294       52.25389508        1.23760553
       71.34264       51.86259619        1.30734666
       71.44233       53.80405581        1.48601442
       71.54202       55.25194144        1.22603415
       71.64172       51.96544367        1.15647363
       71.74141       54.69876878        1.16507996
       71.84110       51.41240811        1.16911450
       71.94080       51.94109213        1.28052732
       72.04049       53.25482099        1.09751168
       72.14019       49.07293684        1.09752549
       72.23988       49.51080178        1.15348280
       72.33957       52.71640462        1.32965413
       72.43927       54.35081518        1.48628521
       72.53896       53.36543531        1.18078670
       72.63865       52.99057422        1.15008942
       72.73835       53.62688923        1.13155374
       72.83804       56.81994948        1.23007590
       72.93773       56.01327450        1.29726568
       73.03743       61.16415897        1.17688886
       73.13712       60.88552350        1.23827557
       73.23681       64.65991357        1.34081511
       73.33651       65.51102029        1.48509192
       73.43620       64.10376126        1.59111569
       73.53589       63.81127014        1.28059136
       73.63559       64.75254092        1.26978683
       73.73528       66.58730610        1.28188309
       73.83497       64.51783618        1.33762477
       73.93467       66.04816387        1.42520626
       74.03436       63.87325626        1.24026765
       74.13405       60.26462532        1.25578269
       74.23375       63.59400328        1.34388277
       74.33344       63.76386105        1.48141374
       74.43313       64.76866809        1.54932517
       74.53283       66.69479750        1.33588766
       74.63252       65.86302184        1.31787024
       74.73221       71.22538712        1.36401820
       74.83191       75.14610316        1.48642478
       74.93160       75.89942591        1.51070508
       75.03129       78.98398386        1.37019178
       75.13099       87.39358232        1.49327168
       75.23068       88.73438694        1.56948506
       75.33037       95.52262184        1.79028378
       75.43007      104.13309520        1.89665566
       75.52976      110.05102712        1.69378022
       75.62945      117.52449053        1.74910543
       75.72915      123.17275070        1.78374122
       75.82884      138.13194258        2.03469699
       75.92854      135.87167803        1.89412623
       76.02823      145.58895997        1.83938938
       76.12792      151.48614297        1.96142162
       76.22762      148.20310010        2.04659561
       76.32731      149.57233880        2.32215034
       76.42700      149.49218301        2.19110255
       76.52670      144.12005114        1.98439741
       76.62639      135.69251774        1.90067452
       76.72608      131.77766095        1.84182227
       76.82578      124.27489412        2.06051444
       76.92547      124.85424955        1.65433676
       77.02516      125.23867440        1.71731400
       77.12486      123.22014302        1.78927048
       77.22455      128.54025642        1.94618709
       77.32424      128.31442890        2.38876418
       77.42394      130.53172178        1.92387521
       77.52363      134.00895235        1.88388759
       77.62332      134.85827500        1.88120216
       77.72302      143.90231645        1.94820649
       77.82271      143.41241593        2.28077825
       77.92240      147.82977061        1.77343367
       78.02210      147.19577620        1.90945385
       78.12179      145.78240075        2.02950710
       78.22148      140.61182495        2.10740391
       78.32118      142.13515328        2.45875297
       78.42087      126.07946437        1.82156701
       78.52056      118.58452796        1.82393183
       78.62026      115.76638592        1.78790997
       78.71995      106.03845550        1.71639278
       78.81964       97.91199259        1.84182722
       78.91934       90.47913497        1.37163750
       79.01903       79.85524361        1.41230101
       79.11872       75.98781051        1.43362506
       79.21842       72.18245869        1.49039999
       79.31811       68.44051736        1.63452411
       79.41780       67.83900237        1.32007098
       79.51750       64.51908078        1.30795097
       79.61719       62.60904550        1.29214983
       79.71689       65.02455466        1.36730774
       79.81658       62.18653809        1.41728423
       79.91627       64.12574282        1.22003331
       80.01597       63.81397221        1.25095076
       80.11566       61.42910275        1.28292152
       80.21535       62.41711039        1.38241479
       80.31505       68.39611895        1.72063070
       80.41474       65.66831706        1.29540126
       80.51443       65.49595618        1.28802468
       80.61413       71.08023658        1.38657420
       80.71382       80.20001004        1.52406864
       80.81351       85.64810469        1.77007451
       80.91321       90.47023981        1.34169102
       81.01290      104.01038222        1.55353551
       81.11259      121.24983513        1.81117978
       81.21229      141.73793808        2.11913543
       81.31198      155.58120826        2.47729542
       81.41167      176.03791529        2.06408420
       81.51137      195.43696498        2.23809478
       81.61106      207.89120786        2.41061715
       81.71075      229.13398671        2.62059600
       81.81045      235.63430131        2.81548989
       81.91014      255.95338444        2.25726278
       82.00983      274.81190181        2.50096813
       82.10953      284.57205715        2.84749869
       82.20922      292.82456908        3.21294239
       82.30891      291.75799520        3.36247903
       82.40861      294.36937921        2.74674370
       82.50830      287.65282761        2.70757776
       82.60799      285.96705210        2.90791134
       82.70769      288.89849903        3.18110096
       82.80738      284.68947646        3.01678483
       82.90707      279.61058707        2.42749237
       83.00677      274.31810746        2.56180097
       83.10646      259.96014218        2.93343766
       83.20615      249.43515271        3.19782790
       83.30585      238.67138939        2.96286784
       83.40554      223.40520898        2.38265724
       83.50524      205.19826660        2.22747966
       83.60493      186.78313832        2.34046180
       83.70462      174.26347777        2.54871851
       83.80432      161.47470893        2.14364678
       83.90401      134.78916609        1.64188962
       84.00370      111.62969803        1.55760765
       84.10340       93.37329545        1.70153771
       84.20309       87.86622287        2.00369724
       84.30278       81.17088314        1.56599373
       84.40248       73.62428514        1.31600621
       84.50217       69.51449681        1.25435840
       84.60186       67.86554676        1.40137389
       84.70156       68.12030886        1.83727819
       84.80125       63.84602429        1.23817883
       84.90094       64.05110816        1.11407138
       85.00064       64.17092869        1.14890402
       85.10033       63.47564991        1.35228027
       85.20002       71.52964781        2.46274223
       85.29972       66.43709539        1.25178870
       85.39941       67.88069653        1.29011325
       85.49910       65.36694730        1.23104340
       85.59880       67.21433028        1.40377993
       85.69849       70.27490380        2.57728995
       85.79818       66.95984729        1.18595617
       85.89788       64.75370969        1.13830175
       85.99757       65.27207697        1.17430145
       86.09726       61.53202857        1.30890191
       86.19696       66.50030079        2.61392352
       86.29665       62.27862134        1.19689656
       86.39634       64.72198090        1.24143185
       86.49604       59.66558232        1.17371742
       86.59573       58.12067089        1.23421620
       86.69542       57.11746050        2.55803794
       86.79512       55.95472894        1.05095832
       86.89481       55.32279221        1.03025802
       86.99451       53.74592750        1.05251904
       87.09420       53.24257430        1.16831442
       87.19389       58.65747769        2.90535628
       87.29359       52.94544566        1.11843935
       87.39328       52.09171374        1.12434011
       87.49297       49.19354115        1.06057243
       87.59267       47.97191268        1.06786977
       87.69236       50.68471161        3.28479985
       87.79205       49.68918558        1.01312071
       87.89175       49.41438879        1.00217178
       87.99144       50.73664599        1.05820562
       88.09113       50.04361815        1.11701019
       88.19083       60.91620143        6.52398869
       88.29052       48.37866566        1.10512739
       88.39021       48.31306308        1.11173657
       88.48991       50.66726463        1.09272929
       88.58960       48.74473727        1.03787288
       88.68929       39.13920120        7.20201776
       88.78899       50.13473094        1.01602365
       88.88868       50.37180687        0.99618867
       88.98837       50.04970656        1.03279859
       89.08807       50.63620885        1.06407120
       89.18776       50.34908934        8.63320752
       89.28745       51.21472268        1.08728804
       89.38715       54.16281261        1.12974640
       89.48684       53.25559216        1.09623991
       89.58653       57.11209376        1.11232419
       89.68623       69.58243341        9.95765780
       89.78592       57.97990195        1.08903293
       89.88561       61.69092577        1.10143279
       89.98531       65.10518719        1.16036799
       90.08500       72.99289578        1.27462233
       90.18469       51.46074368        8.91910866
       90.28439       70.93915448        1.28322051
       90.38408       80.03309781        1.38628266
       90.48377       84.29990844        1.39621559
       90.58347       93.21191216        1.44550191
       90.68316      102.37336687       11.80387688
       90.78286       90.81254718        1.36562380
       90.88255       97.83318917        1.37954026
       90.98224       95.25265121        1.40823304
       91.08194       98.17705580        1.47674360
       91.18163       99.59557307       11.86939234
       91.28132       99.22645546        1.52861119
       91.38102       99.94106219        1.57485827
       91.48071       99.44557782        1.53237578
       91.58040       91.79062770        1.42343997
       91.68010       99.40130181       11.20934382
       91.77979       86.49685345        1.32622054
       91.87948       87.10217733        1.31033381
       91.97918       81.16050389        1.31316029
       92.07887       77.09555269        1.33301297
       92.17856       85.42363736       10.67193650
       92.27826       76.30222639        1.36959252
       92.37795       77.18791974        1.41024058
       92.47764       76.64906103        1.33403566
       92.57734       76.02033363        1.28880455
       92.67703       62.87516200        7.60483227
       92.77672       81.15627789        1.28365151
       92.87642       83.66927951        1.27859687
       92.97611       88.36941050        1.37232335
       93.07580       91.96811276        1.59803131
       93.17550       90.64697203        2.98312935
       93.27519       90.97542571        1.46491896
       93.37488       91.64719813        1.42928624
       93.47458       95.83396982        1.47785573
       93.57427       97.89462556        1.72698180
       93.67396       99.40880345        2.35197408
       93.77366       99.94310425        1.46094410
       93.87335       96.93807109        1.37420288
       93.97304       95.11074084        1.41844369
       94.07274       89.59337463        1.78700378
       94.17243       89.81940319        2.04159358
       94.27212       90.64532202        1.52763134
       94.37182       88.94922849        1.47474512
       94.47151       88.38414541        1.40780855
       94.57121       81.93849800        1.78853942
       94.67090       83.02170498        1.82124211
       94.77059       84.52391992        1.42860940
       94.87029       81.99145544        1.27936853
       94.96998       72.43483928        1.21732979
       95.06967       70.91176851        1.38841748
       95.16937       68.26101036        1.86457571
       95.26906       66.48889600        1.42152518
       95.36875       63.23308696        1.25776895
       95.46845       60.87767006        1.18594760
       95.56814       62.64509522        1.38441705
       95.66783       61.17093629        1.53684126
       95.76753       58.16492103        1.23826360
       95.86722       53.05690965        1.00579651
       95.96691       55.06763758        1.06292486
       96.06661       54.03589047        1.34876382
       96.16630       55.02619902        1.45148981
       96.26599       51.73881619        1.26384849
       96.36569       50.14200698        1.11632553
       96.46538       50.08318768        1.07671851
       96.56507       47.23922684        1.29053896
       96.66477       48.89254599        1.27942938
       96.76446       46.94381745        1.12022815
       96.86415       45.94806571        0.95995513
       96.96385       49.56588275        1.02990864
       97.06354       48.76478375        1.38130837
       97.16323       49.55635927        1.33146284
       97.26293       48.77126966        1.24092635
       97.36262       48.47329342        1.14560948
       97.46231       48.26307916        1.05164498
       97.56201       48.90525797        1.34684995
       97.66170       52.48660803        1.25339299
       97.76139       52.76635326        1.14173436
       97.86109       52.79579640        1.03270125
       97.96078       53.56882981        1.06298620
       98.06047       55.20829729        1.49897763
       98.16017       57.49658929        1.35998042
       98.25986       55.48666807        1.27602575
       98.35956       56.55613032        1.21628296
       98.45925       58.96972347        1.15934376
       98.55894       62.28025201        1.55436517
       98.65864       63.52229845        1.34695622
       98.75833       66.66263353        1.28942496
       98.85802       70.15222665        1.23521815
       98.95772       69.13958879        1.21804172
       99.05741       68.71962226        1.68577174
       99.15710       74.43458349        1.50914139
       99.25680       73.38393145        1.45165987
       99.35649       77.24446186        1.41868732
       99.45618       81.87979016        1.36139921
       99.55588       82.83453594        1.82971466
       99.65557       83.44999973        1.51512244
       99.75526       84.63261615        1.43016117
       99.85496       85.95462834        1.37184909
       99.95465       85.59565549        1.34210487
      100.05434       91.68507913        1.97919878
      100.15404       85.66095322        1.61102781
      100.25373       85.48429308        1.59008210
      100.35342       87.85126334        1.60577898
      100.45312       86.31211912        1.45230457
      100.55281       82.65566911        1.86638990
      100.65250       84.03042639        1.53314077
      100.75220       80.38862814        1.38882964
      100.85189       80.36498269        1.32683381
      100.95158       81.32852286        1.29914599
      101.05128       78.76189034        1.82256774
      101.15097       80.91108633        1.52684044
      101.25066       77.15528368        1.47291325
      101.35036       78.86325369        1.50212611
      101.45005       77.32335537        1.39861050
      101.54974       72.78013175        1.68979470
      101.64944       70.14040346        1.35330343
      101.74913       76.51283060        1.33206675
      101.84882       78.95741463        1.31732493
      101.94852       79.20396055        1.38980208
      102.04821       78.70660051        1.66868027
      102.14791       78.27514102        1.49971346
      102.24760       79.76104465        1.50117496
      102.34729       81.84559750        1.51457006
      102.44699       80.35153801        1.52669357
      102.54668       81.25892877        1.61106158
      102.64637       83.28862850        1.45683876
      102.74607       83.91865427        1.39271517
      102.84576       86.69532828        1.38882435
      102.94545       88.14872886        1.59508707
      103.04515       86.93832746        1.67689600
      103.14484       84.96246600        1.54871950
      103.24453       83.73747674        1.51372843
      103.34423       81.89013980        1.48472419
      103.44392       88.44415495        1.67180231
      103.54361       83.51336951        1.57787403
      103.64331       85.55166798        1.45381155
      103.74300       86.47975086        1.39428758
      103.84269       85.40774910        1.36158171
      103.94239       85.48970236        1.63702911
      104.04208       83.38181041        1.56396043
      104.14177       82.13378389        1.51009733
      104.24147       82.40730561        1.51185491
      104.34116       81.66790858        1.51436176
      104.44085       81.93266297        1.72274901
      104.54055       78.42545373        1.52582400
      104.64024       78.94951648        1.43907674
      104.73993       77.29792578        1.35874010
      104.83963       73.83758004        1.27926770
      104.93932       71.79430097        1.52913146
      105.03901       72.32973106        1.44621070
      105.13871       70.23405615        1.37210259
      105.23840       71.40005160        1.38270751
      105.33809       67.62540500        1.35342592
      105.43779       67.63636490        1.57489420
      105.53748       69.56849444        1.43247811
      105.63717       67.78858837        1.29604733
      105.73687       63.62223345        1.19474778
      105.83656       62.16001699        1.15067414
      105.93626       61.87450919        1.45482354
      106.03595       58.40050854        1.28083915
      106.13564       58.88461723        1.24309399
      106.23534       54.44288667        1.20982071
      106.33503       56.46740958        1.24464565
      106.43472       54.06424990        1.43968181
      106.53442       53.32851111        1.24366007
      106.63411       53.40722459        1.13057879
      106.73380       53.85170876        1.08203977
      106.83350       55.13146420        1.07852460
      106.93319       54.01655256        1.38384714
      107.03288       56.17279814        1.25081834
      107.13258       57.02733811        1.22332939
      107.23227       59.58114085        1.26868255
      107.33196       56.67088125        1.23378753
      107.43166       57.04353240        1.48733456
      107.53135       58.21262938        1.29640728
      107.63104       60.54908042        1.20401432
      107.73074       61.09730487        1.16038447
      107.83043       61.09627368        1.14570682
      107.93012       62.86108508        1.53744809
      108.02982       61.31536367        1.32894583
      108.12951       63.68563707        1.28807574
      108.22920       63.98721989        1.27043290
      108.32890       64.84037841        1.26671967
      108.42859       67.23637315        1.63723589
      108.52828       64.91757086        1.36451349
      108.62798       65.37586930        1.24166063
      108.72767       68.93298976        1.22393462
      108.82736       68.51087606        1.24704829
      108.92706       65.70381530        1.54653097
      109.02675       65.12555972        1.34696112
      109.12644       66.43661830        1.32788060
      109.22614       62.41400093        1.28788303
      109.32583       64.68753755        1.42883820
      109.42552       66.69621148        1.53048628
      109.52522       66.28242499        1.37648941
      109.62491       63.13312504        1.27764962
      109.72461       63.68376909        1.22684491
      109.82430       62.29982103        1.13345861
      109.92399       61.41444640        1.46315211
      110.02369       61.63587946        1.28361107
      110.12338       60.87433485        1.26731067
      110.22307       59.74441887        1.24604849
      110.32277       58.49835286        1.25902343
      110.42246       58.02157882        1.52455208
      110.52215       55.22537783        1.25961894
      110.62185       57.77915117        1.21438489
      110.72154       56.82173083        1.12349906
      110.82123       54.77815078        1.13916932
      110.92093       58.43787228        1.37248570
      111.02062       55.47553399        1.23529162
      111.12031       55.58974608        1.24580053
      111.22001       56.77191647        1.23544406
      111.31970       56.05364504        1.33225569
      111.41939       59.15208955        1.41631919
      111.51909       58.58180589        1.27890118
      111.61878       56.82349688        1.18645596
      111.71847       62.56607513        1.15853146
      111.81817       64.11651994        1.27296661
      111.91786       65.17147643        1.35066565
      112.01755       64.70293615        1.31407697
      112.11725       71.04474282        1.38770960
      112.21694       70.06406747        1.37186236
      112.31663       69.88478984        1.50977935
      112.41633       77.35641313        1.56087389
      112.51602       80.27677355        1.46440250
      112.61571       81.01209487        1.40334691
      112.71541       80.87012824        1.32133126
      112.81510       84.22060185        1.51212977
      112.91479       89.12984833        1.58486558
      113.01449       86.84013618        1.53179372
      113.11418       88.59984596        1.54215984
      113.21387       90.51045706        1.55171256
      113.31357       90.17075903        1.72003924
      113.41326       94.30394008        1.67192110
      113.51296       88.35984066        1.52200431
      113.61265       89.96267625        1.48192506
      113.71234       91.57765587        1.42822388
      113.81204       92.20177262        1.64182834
      113.91173       91.03970458        1.58084069
      114.01142       88.40204479        1.54193836
      114.11112       90.71700931        1.56129573
      114.21081       90.57166606        1.57132038
      114.31050       87.41459759        1.75041328
      114.41020       87.71852190        1.62030542
      114.50989       87.47644047        1.51476388
      114.60958       87.30163832        1.46438622
      114.70928       84.48095947        1.38922770
      114.80897       82.44776541        1.55645329
      114.90866       85.89847372        1.49863847
      115.00836       86.24873852        1.49469019
      115.10805       84.77630933        1.48987104
      115.20774       85.79127569        1.52149828
      115.30744       83.95895032        1.72809066
      115.40713       87.33250299        1.59656011
      115.50682       85.39193952        1.49033414
      115.60652       91.15213018        1.48429651
      115.70621       90.64035349        1.42247997
      115.80590       90.16018741        1.65500909
      115.90560       91.10766336        1.50795633
      116.00529       95.54671806        1.56172932
      116.10498       99.42808176        1.60999980
      116.20468       96.92815625        1.62598505
      116.30437       97.79822360        1.94701330
      116.40406      102.44546090        1.73587241
      116.50376      103.07781805        1.64548172
      116.60345      105.61534936        1.59900354
      116.70314      110.38197261        1.58536239
      116.80284      115.02716609        1.92325654
      116.90253      113.68398630        1.71985456
      117.00222      120.58599434        1.75770846
      117.10192      125.82871438        1.84395722
      117.20161      130.74181750        1.90282119
      117.30131      126.98493665        2.24370846
      117.40100      138.19318519        1.96854682
      117.50069      136.70752962        1.85947352
      117.60039      142.23490049        1.81549257
      117.70008      150.84075660        1.81177994
      117.79977      150.62394492        2.21853434
      117.89947      155.82677833        1.96202134
      117.99916      161.64609234        2.02256250
      118.09885      165.26105277        2.08365992
      118.19855      162.53247961        2.16410178
      118.29824      167.18833848        2.40655532
      118.39793      168.68185175        2.19481746
      118.49763      174.94499589        2.10966441
      118.59732      176.28208585        2.04470176
      118.69701      178.13943362        2.14138141
      118.79671      176.54980927        2.30172854
      118.89640      177.98003502        2.15480917
      118.99609      174.95033448        2.13387852
      119.09579      174.09693747        2.15341501
      119.19548      175.41734376        2.36196850
      119.29517      178.93279569        2.47867762
      119.39487      170.97417643        2.22669362
      119.49456      175.16703967        2.12424514
      119.59425      170.94184514        2.03764479
      119.69395      160.04990998        2.07933175
      119.79364      161.93640917        2.11391155
      119.89333      155.95936671        2.00735348
      119.99303      152.32397363        1.93666851
      120.09272      150.57411136        1.96927620
      120.19241      145.36307452        2.17446921
      120.29211      141.80896707        2.12555880
      120.39180      139.20349579        2.00897658
      120.49149      137.67328149        1.85805168
      120.59119      133.09963039        1.77294992
      120.69088      126.51022124        1.86031601
      120.79057      121.23802489        1.78171563
      120.89027      122.34218659        1.75724480
      120.98996      121.67137953        1.73891196
      121.08966      116.89264356        1.71689310
      121.18935      116.57999476        1.96534907
      121.28904      114.82688081        1.90095299
      121.38874      116.35383061        1.80963386
      121.48843      115.82012374        1.70525820
      121.58812      116.07084020        1.62816009
      121.68782      117.62548516        1.81586338
      121.78751      116.56675977        1.72247390
      121.88720      112.89931684        1.67327238
      121.98690      110.44101772        1.66721120
      122.08659      114.28756732        1.73019370
      122.18628      109.21732267        1.96175098
      122.28598      108.89676360        1.84207999
      122.38567      108.04774926        1.75727994
      122.48536      108.13034745        1.66290976
      122.58506      109.24680365        1.58312265
      122.68475      107.74829491        1.78152385
      122.78444      107.44801152        1.67514426
      122.88414      104.52806921        1.63803319
      122.98383      107.06810141        1.69193508
      123.08352      105.22332249        1.66284578
      123.18322      103.07989655        1.91940547
      123.28291      102.54992412        1.73992409
      123.38260      102.01570825        1.67524974
      123.48230      102.96133507        1.62214673
      123.58199       99.41479218        1.48965010
      123.68168       99.26069270        1.69851808
      123.78138       98.13573951        1.52364310
      123.88107       93.42834291        1.45203785
      123.98076       89.75365510        1.44933592
      124.08046       91.02921835        1.44428457
      124.18015       90.92301390        1.63377012
      124.27984       86.05271763        1.42376511
      124.37954       84.68372627        1.33271650
      124.47923       84.59113512        1.30035292
      124.57893       78.50746405        1.33436055
