        5.04651       52.63957784        2.47538731
        5.14621       59.40516868        2.53494051
        5.24590       54.63615180        2.39579615
        5.34559       53.98028934        2.18406074
        5.44529       53.69768971        2.36980827
        5.54498       53.30092364        1.98602440
        5.64467       52.65795774        1.95671152
        5.74437       52.06909880        1.75635916
        5.84406       55.16895103        1.82977377
        5.94375       50.05132416        1.74019184
        6.04345       50.41802933        1.69712743
        6.14314       52.60035900        1.58730658
        6.24283       54.00151519        1.66148174
        6.34253       52.85191452        1.56768898
        6.44222       53.32843042        1.65817253
        6.54191       52.61285123        1.56024956
        6.64161       48.72278514        1.42219755
        6.74130       49.98185550        1.44633857
        6.84099       50.16873744        1.43855815
        6.94069       48.15018818        1.43044060
        7.04038       49.79165304        1.34279550
        7.14007       49.78850969        1.33996902
        7.23977       50.31880010        1.32355866
        7.33946       48.06367836        1.31325657
        7.43915       49.89996508        1.32073278
        7.53885       51.19445819        1.31313165
        7.63854       49.12954070        1.22940052
        7.73823       47.95249920        1.26112285
        7.83793       49.86937284        1.24464068
        7.93762       48.10813227        1.27512756
        8.03732       50.66477881        1.17366689
        8.13701       50.08693599        1.16166352
        8.23670       50.95244938        1.18822634
        8.33640       48.96299678        1.16503639
        8.43609       48.00040617        1.20592437
        8.53578       48.38152495        1.12771369
        8.63548       49.89638201        1.13212972
        8.73517       48.99157224        1.10040161
        8.83486       49.11274546        1.10444938
        8.93456       48.13418514        1.08773790
        9.03425       48.38136527        1.05860259
        9.13394       50.94428011        1.08842285
        9.23364       47.88566993        1.07053605
        9.33333       51.88356581        1.13717681
        9.43302       50.28868273        1.11991590
        9.53272       50.17374227        1.08083721
        9.63241       50.49583151        1.11496156
        9.73210       48.86090764        1.09450189
        9.83180       48.46175412        1.13577933
        9.93149       50.62486189        1.15262891
       10.03118       49.00072054        1.09105168
       10.13088       51.06186313        1.08715289
       10.23057       48.92075143        1.11426194
       10.33026       49.28793145        1.15610738
       10.42996       48.21969164        1.12780023
       10.52965       49.67007954        1.10858272
       10.62934       49.65664460        1.11109534
       10.72904       50.93030548        1.14194752
       10.82873       51.06550203        1.13770549
       10.92842       51.26175886        1.15900433
       11.02812       50.97605324        1.10110367
       11.12781       51.16403240        1.14270888
       11.22750       51.42608464        1.15705588
       11.32720       49.50565364        1.16570264
       11.42689       53.05547960        1.16504955
       11.52658       55.44088609        1.17685750
       11.62628       55.32689625        1.18839849
       11.72597       55.25575715        1.21285625
       11.82567       58.80711217        1.28617991
       11.92536       59.36533268        1.20935466
       12.02505       63.79741216        1.25971927
       12.12475       70.21015545        1.32061074
       12.22444       74.64480654        1.44409838
       12.32413       82.56055764        1.54224781
       12.42383       91.99260251        1.54558100
       12.52352      104.97670329        1.64135204
       12.62321      121.72394302        1.81823908
       12.72291      139.71066113        1.89609841
       12.82260      160.35098903        2.20883394
       12.92229      181.57875522        2.13544168
       13.02199      202.35493803        2.23684612
       13.12168      232.30338584        2.43927790
       13.22137      260.08389745        2.66538877
       13.32107      288.15881103        2.89663998
       13.42076      323.90214208        2.95776497
       13.52045      347.13552909        3.09963489
       13.62015      353.07482711        3.02973666
       13.71984      344.51605963        3.11912698
       13.81953      316.54143736        3.03971340
       13.91923      283.09436419        2.69990378
       14.01892      222.15912166        2.32716401
       14.11861      172.65342025        2.13971106
       14.21831      134.03474410        1.88644199
       14.31800      107.36005664        1.77695920
       14.41769       85.34002397        1.52532538
       14.51739       71.33809862        1.36032913
       14.61708       62.94704883        1.28088599
       14.71677       57.11972274        1.23992888
       14.81647       52.31532790        1.24293302
       14.91616       52.27045483        1.14254979
       15.01585       50.00364760        1.13756313
       15.11555       50.06186579        1.15142116
       15.21524       48.34872970        1.16616435
       15.31493       48.59610165        1.19734810
       15.41463       48.92315707        1.16321273
       15.51432       47.19913236        1.10706516
       15.61402       47.42276708        1.13779346
       15.71371       47.27749654        1.12824025
       15.81340       47.50015974        1.17647014
       15.91310       48.43546305        1.15436225
       16.01279       46.74320201        1.08574555
       16.11248       48.43500165        1.13496632
       16.21218       48.57361635        1.16809231
       16.31187       49.13699317        1.17774281
       16.41156       48.06945052        1.14314517
       16.51126       48.11368069        1.16301045
       16.61095       51.71132526        1.16272525
       16.71064       51.87474394        1.20138671
       16.81034       52.30869878        1.21007063
       16.91003       51.68855678        1.16816056
       17.00972       54.30123676        1.14952593
       17.10942       59.23533599        1.26919410
       17.20911       63.54295802        1.32632589
       17.30880       64.06356828        1.34331121
       17.40850       69.83555955        1.40244455
       17.50819       72.88106369        1.39127986
       17.60788       75.60423646        1.46115780
       17.70758       75.53117559        1.46646410
       17.80727       72.68960708        1.45623106
       17.90696       73.10390074        1.36544403
       18.00666       67.89694612        1.33878817
       18.10635       62.95979999        1.25376607
       18.20604       60.92560295        1.35292924
       18.30574       58.54623301        1.26390601
       18.40543       55.60860989        1.20119272
       18.50512       52.67272220        1.20582711
       18.60482       54.95456810        1.21244972
       18.70451       50.91597328        1.23311536
       18.80420       52.40985982        1.17535806
       18.90390       52.21696946        1.16066132
       19.00359       50.64564021        1.11312322
       19.10328       49.33355595        1.16226267
       19.20298       46.97448885        1.16932639
       19.30267       47.87063601        1.13362417
       19.40237       47.45981747        1.11595836
       19.50206       46.08271645        1.12724139
       19.60175       45.33954288        1.10554850
       19.70145       46.84133595        1.17837554
       19.80114       46.39387859        1.11225007
       19.90083       45.90011945        1.06890977
       20.00053       46.77829838        1.09826758
       20.10022       46.41944298        1.10215852
       20.19991       48.33235206        1.20244499
       20.29961       51.08925017        1.17147978
       20.39930       49.50984986        1.18800165
       20.49899       49.69006931        1.16949270
       20.59869       52.52576522        1.22450632
       20.69838       52.16982761        1.26533621
       20.79807       52.64717679        1.21240666
       20.89777       57.13453451        1.23464104
       20.99746       54.66155539        1.21952698
       21.09715       57.54434247        1.31812207
       21.19685       56.65446829        1.30103293
       21.29654       58.78142926        1.29285109
       21.39623       58.80929701        1.29322657
       21.49593       58.45476204        1.27087860
       21.59562       52.85129592        1.23728670
       21.69531       51.76086069        1.27354757
       21.79501       48.77319991        1.13080031
       21.89470       49.05659582        1.10857321
       21.99439       47.67741706        1.13915918
       22.09409       47.92545732        1.14495866
       22.19378       46.30640812        1.19515221
       22.29347       44.27022923        1.08827266
       22.39317       44.98818452        1.12551036
       22.49286       46.24206584        1.14022557
       22.59255       46.23014396        1.15348336
       22.69225       47.29753692        1.22954099
       22.79194       47.56980074        1.10742659
       22.89163       48.29968798        1.09410032
       22.99133       54.91310655        1.19923280
       23.09102       57.74664130        1.27731040
       23.19072       60.24302517        1.30781938
       23.29041       60.89365933        1.29852122
       23.39010       59.77361160        1.29995022
       23.48980       60.01421815        1.30730406
       23.58949       57.75991031        1.29961158
       23.68918       55.69586706        1.34188704
       23.78888       52.71190717        1.16329055
       23.88857       51.21360097        1.16158192
       23.98826       48.31072466        1.15326417
       24.08796       48.41762243        1.13204871
       24.18765       46.79374486        1.19241546
       24.28734       45.99414971        1.12552309
       24.38704       46.06329080        1.14519706
       24.48673       43.98250680        1.11494908
       24.58642       44.05233367        1.15275745
       24.68612       44.50951246        1.15721136
       24.78581       45.02557619        1.07293848
       24.88550       46.87341955        1.09435860
       24.98520       44.13064589        1.10103007
       25.08489       48.50507421        1.17753998
       25.18458       47.04708644        1.18400775
       25.28428       45.18713270        1.11831322
       25.38397       48.79756990        1.15663303
       25.48366       49.92163902        1.17692399
       25.58336       53.43722032        1.26931919
       25.68305       58.79151978        1.30601933
       25.78274       68.79000560        1.33371996
       25.88244       84.03476678        1.51191593
       25.98213      107.03916962        1.72122744
       26.08182      131.96125060        1.96226689
       26.18152      152.20007135        2.15896770
       26.28121      184.26263466        2.24855414
       26.38090      198.31974546        2.35289971
       26.48060      196.16646967        2.40437327
       26.58029      187.39816433        2.45130983
       26.67998      169.04894141        2.19836202
       26.77968      137.68398380        1.95923816
       26.87937      110.85408680        1.73208752
       26.97907       90.29908700        1.54969618
       27.07876       75.75858208        1.52791450
       27.17845       73.98443101        1.44293466
       27.27815       79.57080886        1.46163174
       27.37784       82.80909896        1.54931137
       27.47753       87.33435014        1.56780711
       27.57723       85.04567440        1.62056548
       27.67692       82.87384661        1.56137818
       27.77661       80.11310166        1.46517069
       27.87631       70.60236514        1.35225800
       27.97600       64.28066462        1.31919577
       28.07569       58.39382753        1.33053977
       28.17539       54.55513737        1.23105619
       28.27508       52.71574682        1.21059684
       28.37477       50.35005229        1.21118271
       28.47447       51.79104696        1.21886017
       28.57416       52.68638365        1.32911792
       28.67385       50.96050122        1.16288933
       28.77355       53.35420195        1.16850743
       28.87324       59.04014032        1.26217828
       28.97293       58.22677482        1.25633915
       29.07263       58.60003650        1.37387233
       29.17232       60.22892853        1.27115777
       29.27201       56.67854201        1.25575347
       29.37171       54.92846973        1.27163510
       29.47140       51.34444449        1.21511460
       29.57109       50.97311400        1.28383059
       29.67079       49.41800972        1.15075990
       29.77048       47.49467054        1.13068528
       29.87017       46.98319281        1.10248800
       29.96987       45.30502787        1.13508997
       30.06956       47.09529608        1.19404114
       30.16925       47.08368750        1.12412405
       30.26895       47.87989801        1.13795126
       30.36864       49.77960209        1.17934669
       30.46833       53.04419254        1.22987925
       30.56803       52.56840732        1.29329475
       30.66772       55.98437727        1.24213262
       30.76742       58.73638479        1.24693328
       30.86711       62.66947150        1.31383862
       30.96680       64.24111677        1.33796486
       31.06650       62.97950366        1.38902148
       31.16619       63.82357589        1.31478026
       31.26588       59.77746468        1.26460702
       31.36558       58.29644819        1.26513751
       31.46527       56.25925581        1.29309426
       31.56496       58.20119745        1.33643075
       31.66466       66.28577230        1.33416155
       31.76435       73.49282660        1.40367519
       31.86404       81.12864803        1.45571320
       31.96374       87.04284116        1.54305489
       32.06343       88.71294366        1.61213295
       32.16312       87.61069554        1.50557056
       32.26282       81.77620640        1.48987212
       32.36251       76.13261916        1.49484889
       32.46220       73.93440197        1.49949618
       32.56190       64.34918947        1.42331026
       32.66159       64.04888501        1.34849729
       32.76128       62.33780952        1.30044782
       32.86098       60.61075565        1.30148899
       32.96067       57.27399787        1.28085887
       33.06036       58.43418373        1.31742901
       33.16006       55.48122881        1.20881831
       33.25975       56.53819408        1.25996889
       33.35944       56.82732258        1.27004512
       33.45914       55.26234922        1.30000179
       33.55883       57.97388134        1.33475516
       33.65852       61.32665019        1.28026546
       33.75822       65.26785770        1.31860543
       33.85791       74.17251311        1.41174449
       33.95760       79.31386752        1.50308493
       34.05730       93.37318607        1.61560339
       34.15699      104.13601941        1.67937087
       34.25668      120.18662364        1.79837629
       34.35638      144.41846837        2.02304821
       34.45607      176.00799220        2.35298123
       34.55577      231.30275880        2.57264261
       34.65546      294.20829917        2.78425727
       34.75515      371.40796323        3.19035576
       34.85485      431.10045733        3.41277236
       34.95454      454.51873588        3.61503643
       35.05423      436.03311151        3.66081448
       35.15393      387.56473796        3.23952256
       35.25362      310.96302673        2.94466319
       35.35331      238.87427434        2.64632465
       35.45301      179.72527990        2.39386004
       35.55270      131.45593857        1.99217294
       35.65239      104.71257740        1.71677196
       35.75209       88.66925177        1.56786869
       35.85178       78.70387029        1.47482653
       35.95147       72.56781354        1.44928483
       36.05117       71.26284003        1.40662487
       36.15086       62.98808837        1.27123620
       36.25055       63.52014935        1.33379237
       36.35025       60.75927277        1.32991922
       36.44994       57.87347591        1.32377445
       36.54963       55.67439638        1.24629989
       36.64933       54.56894537        1.21540827
       36.74902       54.27510090        1.22478633
       36.84871       53.37798585        1.20582168
       36.94841       52.96169747        1.29891019
       37.04810       51.02360491        1.12408372
       37.14779       51.66584163        1.15435698
       37.24749       49.91319208        1.16609841
       37.34718       48.78533371        1.18220983
       37.44687       47.79259324        1.25689602
       37.54657       50.95356993        1.18493429
       37.64626       49.17233922        1.15950266
       37.74595       48.08937229        1.12869158
       37.84565       47.71088697        1.18953286
       37.94534       48.67789667        1.22409336
       38.04503       47.77704598        1.09604729
       38.14473       46.31679262        1.08968718
       38.24442       48.60469424        1.13676929
       38.34412       49.22628841        1.19607805
       38.44381       48.64931622        1.28568179
       38.54350       50.84723038        1.17176538
       38.64320       50.03732599        1.15883960
       38.74289       51.52916993        1.19143097
       38.84258       55.17981612        1.23605296
       38.94228       57.33629987        1.32164652
       39.04197       58.85668770        1.20749347
       39.14166       64.59521817        1.31615633
       39.24136       68.04915453        1.34738384
       39.34105       70.14580437        1.41577316
       39.44074       72.12686912        1.56603295
       39.54044       72.42917139        1.40318864
       39.64013       67.90464382        1.35429752
       39.73982       67.03359436        1.35100801
       39.83952       62.35791706        1.29403731
       39.93921       61.73291801        1.36518225
       40.03890       55.96271767        1.18956838
       40.13860       56.51808592        1.19393768
       40.23829       57.55545410        1.24751597
       40.33798       56.44123916        1.27384201
       40.43768       56.60851484        1.33476704
       40.53737       56.84269251        1.24140564
       40.63706       57.14080208        1.27080281
       40.73676       59.74107191        1.29745069
       40.83645       62.84708987        1.34200633
       40.93614       62.41286881        1.35974384
       41.03584       65.80722091        1.31408578
       41.13553       76.07626183        1.41488737
       41.23522       91.77071879        1.59231715
       41.33492      110.42853813        1.82909982
       41.43461      130.15273597        2.04998113
       41.53430      155.41319257        2.09870056
       41.63400      185.40635770        2.34362665
       41.73369      203.59358785        2.40292155
       41.83338      209.47766420        2.50264878
       41.93308      209.11975185        2.47812804
       42.03277      215.44196699        2.29929376
       42.13247      236.92603407        2.53504886
       42.23216      283.77151868        2.78109951
       42.33185      350.16352553        3.31876163
       42.43155      418.88505058        3.57857908
       42.53124      492.83208914        3.76116014
       42.63093      553.12335250        3.99497168
       42.73063      576.18964720        4.09674182
       42.83032      561.41716710        4.11496936
       42.93001      514.87459370        3.79059829
       43.02971      430.04290203        3.26951675
       43.12940      331.04512699        2.92349834
       43.22909      243.02415949        2.63009844
       43.32879      176.67026235        2.36048946
       43.42848      134.98125902        2.01716194
       43.52817      100.12789379        1.66143125
       43.62787       85.30643507        1.52830672
       43.72756       72.82216621        1.44515521
       43.82725       65.83233700        1.43456732
       43.92695       60.58751385        1.24783090
       44.02664       58.71992064        1.22253037
       44.12633       58.09287176        1.26129838
       44.22603       57.22971416        1.30301306
       44.32572       55.38678045        1.35094555
       44.42541       54.87891161        1.28386819
       44.52511       58.00418757        1.28455818
       44.62480       57.17018769        1.29327942
       44.72449       58.34456545        1.26614591
       44.82419       60.10882295        1.44213794
       44.92388       67.10778531        1.27111162
       45.02357       74.56697907        1.35109588
       45.12327       84.37904379        1.48063283
       45.22296      100.40721883        1.65815652
       45.32265      119.74230685        2.00369263
       45.42235      139.10550554        1.96684654
       45.52204      167.86632182        2.13988365
       45.62174      208.32527566        2.42925882
       45.72143      236.06236445        2.58719501
       45.82112      256.04703014        2.95103232
       45.92082      271.43812489        2.58074060
       46.02051      262.94434934        2.59361817
       46.12020      250.26977255        2.53784996
       46.21990      220.30141791        2.50013329
       46.31959      194.68404573        2.53656865
       46.41928      160.53309936        2.12577297
       46.51898      132.98855322        1.94462965
       46.61867      106.34410100        1.72931303
       46.71836       84.73676651        1.58264462
       46.81806       74.30838547        1.53652953
       46.91775       63.99094849        1.24259409
       47.01744       63.19861880        1.26435531
       47.11714       61.73819501        1.27813514
       47.21683       67.71957269        1.37826227
       47.31652       71.63074719        1.54650678
       47.41622       81.25205726        1.55248815
       47.51591       97.03544832        1.70025025
       47.61560      113.72320352        1.82576697
       47.71530      133.84322588        2.00283509
       47.81499      147.85624220        2.15845574
       47.91468      164.94691607        1.99500249
       48.01438      190.10258638        2.14414372
       48.11407      191.66970624        2.23343663
       48.21376      192.00174625        2.33392384
       48.31346      181.41794537        2.34886763
       48.41315      161.69241557        2.06595024
       48.51284      139.74934674        1.98362425
       48.61254      117.12466311        1.80775014
       48.71223       94.71297262        1.65432831
       48.81192       82.87577386        1.54356345
       48.91162       67.88833148        1.25194617
       49.01131       59.52640454        1.21320210
       49.11100       55.02066683        1.20828631
       49.21070       53.35908290        1.24921102
       49.31039       51.30576257        1.26060643
       49.41009       50.20818128        1.17803092
       49.50978       49.70009435        1.19628697
       49.60947       46.41238333        1.16437003
       49.70917       48.89649995        1.23954752
       49.80886       48.83596298        1.20563717
       49.90855       48.16572621        1.09066990
       50.00825       49.84535569        1.13302575
       50.10794       49.66640658        1.15672233
       50.20763       49.58830468        1.20755324
       50.30733       53.40384961        1.31283546
       50.40702       53.36879990        1.23072733
       50.50671       55.77219149        1.26193565
       50.60641       54.60815675        1.25041470
       50.70610       56.94079543        1.31393082
       50.80579       57.76434691        1.30597246
       50.90549       56.81762332        1.16771719
       51.00518       56.11073190        1.17068960
       51.10487       55.96490543        1.20855235
       51.20457       55.64332300        1.28289600
       51.30426       55.04506236        1.26931657
       51.40395       57.60234506        1.24491536
       51.50365       57.73013121        1.26053524
       51.60334       60.70195017        1.31823783
       51.70303       59.56622333        1.38668152
       51.80273       60.75928128        1.28469048
       51.90242       61.16468386        1.20431375
       52.00211       62.31356810        1.22136944
       52.10181       62.00925541        1.25693213
       52.20150       63.42601562        1.40001872
       52.30119       62.25455880        1.33606912
       52.40089       60.37791604        1.29508862
       52.50058       61.26096364        1.32921076
       52.60027       61.32107003        1.34802947
       52.69997       57.07798169        1.42507942
       52.79966       61.38375308        1.24266583
       52.89935       61.37138415        1.19890263
       52.99905       71.32910337        1.31402954
       53.09874       79.35608786        1.43093302
       53.19844       90.05362055        1.74597042
       53.29813      107.46605979        1.69572468
       53.39782      121.19603283        1.86341802
       53.49752      136.34877289        1.98614041
       53.59721      150.57966979        2.08634636
       53.69690      155.51221013        2.32662095
       53.79660      160.13701551        1.97795384
       53.89629      161.96590502        1.96789079
       53.99598      150.80049755        1.94462398
       54.09568      134.57284808        1.91748539
       54.19537      121.94929241        1.99013083
       54.29506      110.95016944        1.74348341
       54.39476      102.14055163        1.68549019
       54.49445       94.24476604        1.61988684
       54.59414       87.32437371        1.58273154
       54.69384       83.96498147        1.65551863
       54.79353       86.82867199        1.44384608
       54.89322       81.18192476        1.39083286
       54.99292       79.67782157        1.41819522
       55.09261       73.98195325        1.42090425
       55.19230       67.77599053        1.46021524
       55.29200       64.45015685        1.32520371
       55.39169       63.79280446        1.36039129
       55.49138       57.67256206        1.28843685
       55.59108       56.71222170        1.31860914
       55.69077       55.79074832        1.34216956
       55.79046       55.62316954        1.17166284
       55.89016       52.72092186        1.13784503
       55.98985       55.49552345        1.17500032
       56.08954       58.83774679        1.24987793
       56.18924       61.28990918        1.37679365
       56.28893       70.26091147        1.34950842
       56.38862       80.20745139        1.49184270
       56.48832       89.77161603        1.60578014
       56.58801      102.87846394        1.76931521
       56.68770      109.11017785        1.88085317
       56.78740      112.28528236        1.63305915
       56.88709      113.87558645        1.66109493
       56.98679      107.17949707        1.61267632
       57.08648      101.69964351        1.66511344
       57.18617       88.01955940        1.60338078
       57.28587       80.26255835        1.43030940
       57.38556       69.46532405        1.41606071
       57.48525       61.54550894        1.35820821
       57.58495       57.18787425        1.33909200
       57.68464       55.57820778        1.33157503
       57.78433       53.85002585        1.14654771
       57.88403       52.35906126        1.14368440
       57.98372       50.63430584        1.14252956
       58.08341       49.45203203        1.22078154
       58.18311       52.73973568        1.28977185
       58.28280       53.38071016        1.22220932
       58.38249       51.32994995        1.25223169
       58.48219       51.47259412        1.28105443
       58.58188       52.88945379        1.31283329
       58.68157       52.23416225        1.27844109
       58.78127       51.92629880        1.11494341
       58.88096       52.52242179        1.10480327
       58.98065       55.12418732        1.17504060
       59.08035       57.45595639        1.28017588
       59.18004       57.92389010        1.30391325
       59.27973       61.99435842        1.27289016
       59.37943       64.93621174        1.34580923
       59.47912       65.32055710        1.40510692
       59.57881       72.81064556        1.55444120
       59.67851       75.24470011        1.47331231
       59.77820       84.44022616        1.43514141
       59.87789       90.56018517        1.48115492
       59.97759       97.85921651        1.61091534
       60.07728      101.41250443        1.77599529
       60.17697      104.20975518        1.71515648
       60.27667      109.90922406        1.71285802
       60.37636      105.46610181        1.71015992
       60.47605      102.83141754        1.76153813
       60.57575      102.01958849        1.92293110
       60.67544       93.93997149        1.58491468
       60.77514       85.43713259        1.43661046
       60.87483       76.51596417        1.33284153
       60.97452       70.49666572        1.34756330
       61.07422       67.76429587        1.48409392
       61.17391       65.18587884        1.26077256
       61.27360       67.24308074        1.32607972
       61.37330       68.17402968        1.38479254
       61.47299       68.92305149        1.45360969
       61.57268       69.70940844        1.66246143
       61.67238       70.44095652        1.36206887
       61.77207       69.88931462        1.32132478
       61.87176       69.35560982        1.30158019
       61.97146       69.12582137        1.34906716
       62.07115       70.96596047        1.54821247
       62.17084       67.97938496        1.32743760
       62.27054       66.78969994        1.37187792
       62.37023       64.80225415        1.40504731
       62.46992       64.92860681        1.45462625
       62.56962       62.36400822        1.60102740
       62.66931       64.31181995        1.30985068
       62.76900       67.94867102        1.31243580
       62.86870       73.20433394        1.33271672
       62.96839       82.94450522        1.46428644
       63.06808       92.06509853        1.71724216
       63.16778       96.33919819        1.55948076
       63.26747      107.86568695        1.70818727
       63.36716      119.95700894        1.87010968
       63.46686      129.04826541        1.99838186
       63.56655      137.04293158        2.18829503
       63.66624      146.00507652        1.92025549
       63.76594      167.60744330        1.99979459
       63.86563      177.70614897        2.05327389
       63.96532      179.49809873        2.15930355
       64.06502      187.25389593        2.36327980
       64.16471      172.44059805        2.09669393
       64.26440      160.76224399        2.10684582
       64.36410      141.02297495        2.01205716
       64.46379      126.49683682        2.01463987
       64.56349      109.58418300        1.90766736
       64.66318       93.77796198        1.54401043
       64.76287       79.18116457        1.40077706
       64.86257       67.25944314        1.28866701
       64.96226       60.48159007        1.27979402
       65.06195       59.20740227        1.36918589
       65.16165       56.51727347        1.20663430
       65.26134       54.18417564        1.20903131
       65.36103       51.93435076        1.23503202
       65.46073       54.15180264        1.30265937
       65.56042       55.50018806        1.37744798
       65.66011       57.03878903        1.21767697
       65.75981       57.06515559        1.20577435
       65.85950       57.58916035        1.20358437
       65.95919       62.23953584        1.30998419
       66.05889       66.77919649        1.40373011
       66.15858       69.71707030        1.36397788
       66.25827       77.96755743        1.49206648
       66.35797       86.45459173        1.63705388
       66.45766       99.02575866        1.86214259
       66.55735      111.91803981        1.97968269
       66.65705      130.85907623        1.89972980
       66.75674      143.48202034        1.93889298
       66.85643      154.58545102        1.99002804
       66.95613      166.88043589        2.15047571
       67.05582      171.17957514        2.19452881
       67.15551      169.55827342        2.07831484
       67.25521      159.10048432        2.11251076
       67.35490      146.62927706        2.13441431
       67.45459      129.55672783        2.11513682
       67.55429      117.33360731        1.92821907
       67.65398       99.55736634        1.59150177
       67.75367       87.06480245        1.47577807
       67.85337       76.05797290        1.39593601
       67.95306       74.48327271        1.47713523
       68.05275       76.27770802        1.41552367
       68.15245       82.00250245        1.45527154
       68.25214       90.68093022        1.62464313
       68.35184       95.75949515        1.74007585
       68.45153      105.93750151        2.01534177
       68.55122      112.91710302        1.79269330
       68.65092      123.57866964        1.74849866
       68.75061      126.92429876        1.79034940
       68.85030      129.44702117        1.84296122
       68.95000      129.39127448        2.08903973
       69.04969      120.71737723        1.70363720
       69.14938      113.79625846        1.70064706
       69.24908       98.63851014        1.69024215
       69.34877       87.73807087        1.64833818
       69.44846       79.63851786        1.82124102
       69.54816       73.74847168        1.36631897
       69.64785       64.38920787        1.25841159
       69.74754       55.27327610        1.17735094
       69.84724       54.88273286        1.20379859
       69.94693       51.76387346        1.31926848
       70.04662       49.05742403        1.05605557
       70.14632       47.31967415        1.07846399
       70.24601       48.06435160        1.16382797
       70.34570       47.97369493        1.23038757
       70.44540       49.32845300        1.47008423
       70.54509       48.80747838        1.14457139
       70.64478       51.17582470        1.17044289
       70.74448       50.28342256        1.17854520
       70.84417       50.85634399        1.22992920
       70.94386       51.95298658        1.36464907
       71.04356       50.21965266        1.11017814
       71.14325       51.89213473        1.17279374
       71.24294       53.28389382        1.25046746
       71.34264       54.16940479        1.33693930
       71.44233       53.48874011        1.48244173
       71.54202       55.47942035        1.22923227
       71.64172       55.44651193        1.19537589
       71.74141       53.88070104        1.15692927
       71.84110       51.86074641        1.17485724
       71.94080       53.69114491        1.30270824
       72.04049       51.24718739        1.07713413
       72.14019       51.19024009        1.12164482
       72.23988       50.30724273        1.16338750
       72.33957       52.07867392        1.32227497
       72.43927       52.29759949        1.45862742
       72.53896       52.13441063        1.16767131
       72.63865       53.07689778        1.15165433
       72.73835       55.02779584        1.14691727
       72.83804       57.33227204        1.23630204
       72.93773       60.18556042        1.34564046
       73.03743       64.20178577        1.20654218
       73.13712       63.66460587        1.26703138
       73.23681       64.00848102        1.33473706
       73.33651       64.55878621        1.47500961
       73.43620       64.93399834        1.60230183
       73.53589       67.05174692        1.31356621
       73.63559       66.01315190        1.28283989
       73.73528       66.84417875        1.28506161
       73.83497       66.66925172        1.36058478
       73.93467       65.35673454        1.41846137
       74.03436       65.83937788        1.25998201
       74.13405       63.36619906        1.28853165
       74.23375       59.91240272        1.30494150
       74.33344       61.60829053        1.45683819
       74.43313       63.02373566        1.52904790
       74.53283       62.98958661        1.29878515
       74.63252       62.04990310        1.27967509
       74.73221       64.36984496        1.29710405
       74.83191       68.53825338        1.42000801
       74.93160       73.44692508        1.48677491
       75.03129       75.96927037        1.34437420
       75.13099       82.68827116        1.45306311
       75.23068       89.33266303        1.57565321
       75.33037      101.80467647        1.84962358
       75.43007      104.74758813        1.90331377
       75.52976      113.34638008        1.72008058
       75.62945      127.64601580        1.82450061
       75.72915      139.46537337        1.90015875
       75.82884      142.45295355        2.06770407
       75.92854      145.75579089        1.96354942
       76.02823      153.02898048        1.88731085
       76.12792      153.83887178        1.97782281
       76.22762      161.69010158        2.13985277
       76.32731      153.01858582        2.35029969
       76.42700      152.01053420        2.21086737
       76.52670      145.07893064        1.99212891
       76.62639      134.57213397        1.89375918
       76.72608      122.62852596        1.77712503
       76.82578      116.01751483        1.99138284
       76.92547      111.32317006        1.56222587
       77.02516      111.57823620        1.62105236
       77.12486      112.54092737        1.71026171
       77.22455      119.00733127        1.87301586
       77.32424      126.94651794        2.37716680
       77.42394      136.16224204        1.96637904
       77.52363      139.15748319        1.92111776
       77.62332      147.68826531        1.97060185
       77.72302      152.71908979        2.00870346
       77.82271      157.16303551        2.39005458
       77.92240      157.83016342        1.83406584
       78.02210      157.93271350        1.97967843
       78.12179      157.29657133        2.11011727
       78.22148      144.36899470        2.13680645
       78.32118      140.13313946        2.44252190
       78.42087      129.68870132        1.84868729
       78.52056      120.31185862        1.83827192
       78.62026      109.88637380        1.74249522
       78.71995      100.18808922        1.66893279
       78.81964       91.77239953        1.78372738
       78.91934       81.96945904        1.30585993
       79.01903       71.38544413        1.33563104
       79.11872       68.41181905        1.36065799
       79.21842       62.48651522        1.38697174
       79.31811       66.42056003        1.61098179
       79.41780       60.92009223        1.25131810
       79.51750       62.90764302        1.29214144
       79.61719       61.81037236        1.28454234
       79.71689       63.96762038        1.35683520
       79.81658       61.39880720        1.40900429
       79.91627       61.74734750        1.19774372
       80.01597       61.19791107        1.22559299
       80.11566       63.66323957        1.30685410
       80.21535       64.47771824        1.40591297
       80.31505       65.18111543        1.68042551
       80.41474       64.79394223        1.28740674
       80.51443       67.18210684        1.30528409
       80.61413       72.41799166        1.40038611
       80.71382       72.24174037        1.44685609
       80.81351       80.73406288        1.71918011
       80.91321       84.58580989        1.29775842
       81.01290       99.03403122        1.51647137
       81.11259      112.46785904        1.74476226
       81.21229      130.86310697        2.03654209
       81.31198      140.85717037        2.35721569
       81.41167      161.44448600        1.97673515
       81.51137      190.30246023        2.20929170
       81.61106      203.44055639        2.38558498
       81.71075      217.72777394        2.55489412
       81.81045      229.80861058        2.78139545
       81.91014      258.91062203        2.27171371
       82.00983      282.71762526        2.53873789
       82.10953      297.34101659        2.91352448
       82.20922      316.67363661        3.34576177
       82.30891      316.45511247        3.50676692
       82.40861      322.80890874        2.88073447
       82.50830      314.37650420        2.83468544
       82.60799      317.46579749        3.06885635
       82.70769      313.99909065        3.32106839
       82.80738      310.71524342        3.15618742
       82.90707      295.49193577        2.49818528
       83.00677      284.48658815        2.61116377
       83.10646      269.87806432        2.99149962
       83.20615      252.71542675        3.22087677
       83.30585      237.39579619        2.95639251
       83.40554      220.10110307        2.36596934
       83.50524      193.62324863        2.16403297
       83.60493      165.32130998        2.20143375
       83.70462      154.14995519        2.39673070
       83.80432      142.00256556        2.00996083
       83.90401      115.41464891        1.51910163
       84.00370       97.39736056        1.45498972
       84.10340       83.45346654        1.60892699
       84.20309       77.50974901        1.88224683
       84.30278       72.07487270        1.47597289
       84.40248       70.49257387        1.28826947
       84.50217       64.58267847        1.20948975
       84.60186       63.01306182        1.35084675
       84.70156       65.40307907        1.80106651
       84.80125       63.57024392        1.23616020
       84.90094       64.78930788        1.12110996
       85.00064       63.37235995        1.14232035
       85.10033       62.53374984        1.34289352
       85.20002       62.69135416        2.30611147
       85.29972       68.74382600        1.27412871
       85.39941       66.44871703        1.27706102
       85.49910       64.93814506        1.22764617
       85.59880       67.80243496        1.41070186
       85.69849       64.09717396        2.46220255
       85.79818       67.35892711        1.19014703
       85.89788       63.96290105        1.13191195
       85.99757       66.52789200        1.18623980
       86.09726       65.25455765        1.34882114
       86.19696       64.05100066        2.56650540
       86.29665       65.61579039        1.22935655
       86.39634       62.35553751        1.21908486
       86.49604       64.03220785        1.21675509
       86.59573       60.54457815        1.26048086
       86.69542       61.28205661        2.65148086
       86.79512       58.90551274        1.07901093
       86.89481       56.61430633        1.04282757
       86.99451       55.30026885        1.06826819
       87.09420       53.94785513        1.17669481
       87.19389       56.29263224        2.84749541
       87.29359       53.37120027        1.12355383
       87.39328       53.38341784        1.13886457
       87.49297       49.61755680        1.06572777
       87.59267       47.50036504        1.06316798
       87.69236       50.11655030        3.26804573
       87.79205       49.46133354        1.01133607
       87.89175       51.07646851        1.01949971
       87.99144       52.16567842        1.07364141
       88.09113       51.30913800        1.13171036
       88.19083       57.24477217        6.32694807
       88.29052       50.17599371        1.12615118
       88.39021       49.94977651        1.13109018
       88.48991       49.29336830        1.07834544
       88.58960       51.43115708        1.06676886
       88.68929       55.55500264        8.59006979
       88.78899       50.43609075        1.01963703
       88.88868       48.62743398        0.97925919
       88.98837       50.64080642        1.03946535
       89.08807       49.12382041        1.04857345
       89.18776       33.47639895        7.03920411
       89.28745       49.33828545        1.06769287
       89.38715       53.31356486        1.12142954
       89.48684       54.23868450        1.10695089
       89.58653       53.57662065        1.07779630
       89.68623       57.18334798        9.02793389
       89.78592       56.48043019        1.07538518
       89.88561       62.96458805        1.11339843
       89.98531       63.44195969        1.14600473
       90.08500       69.28246429        1.24231493
       90.18469       89.14771743       11.76113993
       90.28439       77.73779786        1.34435383
       90.38408       83.11330214        1.41362600
       90.48377       88.54607268        1.43193581
       90.58347       94.73422449        1.45812482
       90.68316       91.85670383       11.18307850
       90.78286       95.30562542        1.39997733
       90.88255       95.74484391        1.36537574
       90.98224      102.69201403        1.46336508
       91.08194       99.57140380        1.48807102
       91.18163       95.95800437       11.65543971
       91.28132       99.93922616        1.53496027
       91.38102       96.85158032        1.55099638
       91.48071       96.24389477        1.50815288
       91.58040       90.96444210        1.41774573
       91.68010       74.34610321        9.69095028
       91.77979       82.67298542        1.29710257
       91.87948       81.03525223        1.26429128
       91.97918       75.73344113        1.26894193
       92.07887       71.29676049        1.28233504
       92.17856       85.57086820       10.68697125
       92.27826       70.34255101        1.31545587
       92.37795       73.93967750        1.38083926
       92.47764       69.96666183        1.27494960
       92.57734       76.05760661        1.28982102
       92.67703       85.76017819        8.89360088
       92.77672       79.30013627        1.26949219
       92.87642       83.31239885        1.27654243
       92.97611       87.03614736        1.36260557
       93.07580       92.76164660        1.60582450
       93.17550       92.50311642        3.01534520
       93.27519       95.20809163        1.49964375
       93.37488       96.07192347        1.46440226
       93.47458      103.55274536        1.53746666
       93.57427      105.38423777        1.79326810
       93.67396      102.39019381        2.38852440
       93.77366      101.84810370        1.47569854
       93.87335      103.93472073        1.42405109
       93.97304       98.36411178        1.44344511
       94.07274       91.72480325        1.80924988
       94.17243       90.78743326        2.05374719
       94.27212       89.96373233        1.52266494
       94.37182       89.59083886        1.48088939
       94.47151       84.57772491        1.37772193
       94.57121       81.79204316        1.78789947
       94.67090       83.87243284        1.83159612
       94.77059       82.41224103        1.41131058
       94.87029       72.58549703        1.20400451
       94.96998       70.43848168        1.20100405
       95.06967       67.43618539        1.35453377
       95.16937       62.30710131        1.78199738
       95.26906       64.13482121        1.39677529
       95.36875       61.66493292        1.24268043
       95.46845       61.21039083        1.18984332
       95.56814       59.69294741        1.35199610
       95.66783       56.73009191        1.48057700
       95.76753       56.41701700        1.22010323
       95.86722       55.62255734        1.03048003
       95.96691       55.98144333        1.07232412
       96.06661       53.51217675        1.34291586
       96.16630       54.14657612        1.44057882
       96.26599       50.75167540        1.25237001
       96.36569       51.97459854        1.13723281
       96.46538       51.71641229        1.09479085
       96.56507       47.13449340        1.28980307
       96.66477       50.84533770        1.30552813
       96.76446       49.75097439        1.15397617
       96.86415       48.43166902        0.98617928
       96.96385       47.69041376        1.01071796
       97.06354       50.59744851        1.40788000
       97.16323       48.24934701        1.31444046
       97.26293       49.20014214        1.24706629
       97.36262       50.79822107        1.17349421
       97.46231       48.09466658        1.05037255
       97.56201       51.41986019        1.38191439
       97.66170       50.56399452        1.23080737
       97.76139       49.07173111        1.10149247
       97.86109       53.60669095        1.04119646
       97.96078       54.52635956        1.07306290
       98.06047       56.20799580        1.51336269
       98.16017       53.74809301        1.31544160
       98.25986       54.37259018        1.26378684
       98.35956       56.08619883        1.21185681
       98.45925       58.92037247        1.15948553
       98.55894       61.86749499        1.55002409
       98.65864       62.99580696        1.34206562
       98.75833       66.07378461        1.28438723
       98.85802       68.68873213        1.22286588
       98.95772       70.32948189        1.22919598
       99.05741       71.54751782        1.72121185
       99.15710       74.05090466        1.50604270
       99.25680       76.89684157        1.48698863
       99.35649       78.75935457        1.43338399
       99.45618       82.23614785        1.36511497
       99.55588       84.17745280        1.84557321
       99.65557       84.74910962        1.52776725
       99.75526       88.30253584        1.46181988
       99.85496       85.46319510        1.36863926
       99.95465       87.34577280        1.35657383
      100.05434       87.28581466        1.93187934
      100.15404       86.45389569        1.61938897
      100.25373       88.16088768        1.61581034
      100.35342       84.80344485        1.57836426
      100.45312       84.46802847        1.43739157
      100.55281       82.70279019        1.86793656
      100.65250       82.47816263        1.51965436
      100.75220       79.87256326        1.38508975
      100.85189       77.20934849        1.30108368
      100.95158       75.77472301        1.25443825
      101.05128       77.92147576        1.81374704
      101.15097       76.18430046        1.48212760
      101.25066       75.59231349        1.45862842
      101.35036       76.82902792        1.48332401
      101.45005       74.37284987        1.37226821
      101.54974       73.68438594        1.70123571
      101.64944       74.66892676        1.39728687
      101.74913       79.16227065        1.35579415
      101.84882       79.40038863        1.32175162
      101.94852       79.41435316        1.39241132
      102.04821       81.75122044        1.70175267
      102.14791       82.15265381        1.53745223
      102.24760       82.84248459        1.53089272
      102.34729       84.63442695        1.54114335
      102.44699       83.48507247        1.55719242
      102.54668       86.38611304        1.66231001
      102.64637       89.12763214        1.50816577
      102.74607       89.52229322        1.43952533
      102.84576       90.94428201        1.42343333
      102.94545       91.68858589        1.62788277
      103.04515       89.16001595        1.69923959
      103.14484       87.43798238        1.57210751
      103.24453       85.49616578        1.53046505
      103.34423       87.03249396        1.53173759
      103.44392       87.55011135        1.66417982
      103.54361       87.82842038        1.61924623
      103.64331       88.15219544        1.47667629
      103.74300       84.85396232        1.38178869
      103.84269       86.25035830        1.36906351
      103.94239       78.88148998        1.57297392
      104.04208       82.26658665        1.55424721
      104.14177       83.95983345        1.52771706
      104.24147       80.72148892        1.49703313
      104.34116       83.12593254        1.52872617
      104.44085       81.91899620        1.72353799
      104.54055       80.29632440        1.54485465
      104.64024       79.34345440        1.44346451
      104.73993       76.14972961        1.34928752
      104.83963       73.46761212        1.27673405
      104.93932       69.43211426        1.50445581
      105.03901       76.03034963        1.48374250
      105.13871       68.00003915        1.35073039
      105.23840       71.62777503        1.38567289
      105.33809       68.24004619        1.36032947
      105.43779       68.41789601        1.58486969
      105.53748       69.49158781        1.43245875
      105.63717       63.65513827        1.25641097
      105.73687       62.70386730        1.18669880
      105.83656       58.46971855        1.11645584
      105.93626       57.53611057        1.40344064
      106.03595       55.28295479        1.24672296
      106.13564       57.47108931        1.22868860
      106.23534       53.40548798        1.19884567
      106.33503       52.68910077        1.20277716
      106.43472       49.81314528        1.38246517
      106.53442       52.97792182        1.24022311
      106.63411       49.70056001        1.09109004
      106.73380       50.80915403        1.05148655
      106.83350       53.02079351        1.05817351
      106.93319       53.15410048        1.37345883
      107.03288       52.57974746        1.21065745
      107.13258       51.82206875        1.16658237
      107.23227       56.77840468        1.23903336
      107.33196       52.18297625        1.18438243
      107.43166       56.92321139        1.48656540
      107.53135       57.11787258        1.28480678
      107.63104       57.97918305        1.17871908
      107.73074       60.51102685        1.15540653
      107.83043       60.14478404        1.13732928
      107.93012       61.56321540        1.52224990
      108.02982       65.74688781        1.37709374
      108.12951       63.96766897        1.29163797
      108.22920       63.96863692        1.27093681
      108.32890       67.83856152        1.29651453
      108.42859       69.56783153        1.66641995
      108.52828       69.00235811        1.40775338
      108.62798       70.09171805        1.28657485
      108.72767       69.53344151        1.22994640
      108.82736       68.72199157        1.24965493
      108.92706       69.11910817        1.58726730
      109.02675       68.50496368        1.38238015
      109.12644       70.53420075        1.36915689
      109.22614       68.99257474        1.35510395
      109.32583       67.66846678        1.46233536
      109.42552       68.00279856        1.54631414
      109.52522       65.57598117        1.36984314
      109.62491       66.78720918        1.31498606
      109.72461       66.80194949        1.25734088
      109.82430       62.72098749        1.13791743
      109.92399       59.58093433        1.44183474
      110.02369       60.73810112        1.27487960
      110.12338       60.37012564        1.26271387
      110.22307       57.15163383        1.21926091
      110.32277       58.52704315        1.26001697
      110.42246       55.54254324        1.49230704
      110.52215       57.55097670        1.28667076
      110.62185       56.22029563        1.19847564
      110.72154       54.32944036        1.09908360
      110.82123       54.05419968        1.13220219
      110.92093       56.33289433        1.34817164
      111.02062       54.27437395        1.22245683
      111.12031       56.98017050        1.26203092
      111.22001       57.28955089        1.24175987
      111.31970       55.63560255        1.32797953
      111.41939       54.92419153        1.36530290
      111.51909       57.09034735        1.26313521
      111.61878       62.08860743        1.24110838
      111.71847       60.05964526        1.13560446
      111.81817       66.10084241        1.29330634
      111.91786       66.12106900        1.36125367
      112.01755       69.34274964        1.36133724
      112.11725       70.71299755        1.38520052
      112.21694       70.76054505        1.37944554
      112.31663       73.57673381        1.55018745
      112.41633       77.91721510        1.56740157
      112.51602       78.19277656        1.44594694
      112.61571       82.61495743        1.41800966
      112.71541       84.47189757        1.35133798
      112.81510       88.26859008        1.54910172
      112.91479       92.01673356        1.61136309
      113.01449       90.76045748        1.56705169
      113.11418       88.80092230        1.54475596
      113.21387       88.66949405        1.53658326
      113.31357       91.68002833        1.73540565
      113.41326       91.25704852        1.64540467
      113.51296       91.94766790        1.55363369
      113.61265       91.01778510        1.49145247
      113.71234       93.74457141        1.44591489
      113.81204       90.95362938        1.63148928
      113.91173       87.77833311        1.55292965
      114.01142       88.28147666        1.54171462
      114.11112       89.40688255        1.55074882
      114.21081       86.81888829        1.53905317
      114.31050       87.76878596        1.75492780
      114.41020       84.00082936        1.58624965
      114.50989       85.43324237        1.49767259
      114.60958       81.13236029        1.41215588
      114.70928       80.54888510        1.35706007
      114.80897       80.94543885        1.54296191
      114.90866       77.77856969        1.42641383
      115.00836       77.76633892        1.41963440
      115.10805       79.01429818        1.43883718
      115.20774       79.45724906        1.46472237
      115.30744       78.81127336        1.67488099
      115.40713       81.54937406        1.54331533
      115.50682       82.55937484        1.46605564
      115.60652       83.30122561        1.41931379
      115.70621       84.27872357        1.37208975
      115.80590       85.33243285        1.61068870
      115.90560       86.27594421        1.46797164
      116.00529       89.16863060        1.50918266
      116.10498       89.74512911        1.52990415
      116.20468       94.53037460        1.60648167
      116.30437       93.18323225        1.90124044
      116.40406       95.73535614        1.67857355
      116.50376       98.00424989        1.60505747
      116.60345      101.35764121        1.56705495
      116.70314      111.83016458        1.59667236
      116.80284      117.14636024        1.94208565
      116.90253      121.28163725        1.77782871
      117.00222      127.39929682        1.80809043
      117.10192      133.79784073        1.90301045
      117.20161      134.17861008        1.92894152
      117.30131      138.54680626        2.34584213
      117.40100      140.65947621        1.98727854
      117.50069      149.92177110        1.94922121
      117.60039      159.41027733        1.92417450
      117.70008      159.31612659        1.86353983
      117.79977      169.19733197        2.35413685
      117.89947      167.54459370        2.03638377
      117.99916      170.90839510        2.08149517
      118.09885      176.55676329        2.15570253
      118.19855      176.45036763        2.25716733
      118.29824      177.47482666        2.48170966
      118.39793      178.53657687        2.26001323
      118.49763      179.89111024        2.14080018
      118.59732      182.83916357        2.08397989
      118.69701      184.85223472        2.18303998
      118.79671      186.81585267        2.36982627
      118.89640      178.26009329        2.15768570
      118.99609      178.37348530        2.15607099
      119.09579      175.36904368        2.16252769
      119.19548      175.62676428        2.36466763
      119.29517      174.27488214        2.44712194
      119.39487      173.68018245        2.24566596
      119.49456      167.54608514        2.07808764
      119.59425      163.23396128        1.99171200
      119.69395      161.38895490        2.08923492
      119.79364      155.92294485        2.07497250
      119.89333      148.14022853        1.95690643
      119.99303      142.37505427        1.87271306
      120.09272      141.62916326        1.91032035
      120.19241      135.93869754        2.10324032
      120.29211      133.45119362        2.06248059
      120.39180      127.66793401        1.92419821
      120.49149      129.96335517        1.80576259
      120.59119      125.24255112        1.72027958
      120.69088      122.26985365        1.82958967
      120.79057      119.58828859        1.77040586
      120.89027      119.33206021        1.73624722
      120.98996      116.68337837        1.70351770
      121.08966      119.16743695        1.73459371
      121.18935      118.90460502        1.98608159
      121.28904      115.32632772        1.90614600
      121.38874      116.59082637        1.81247023
      121.48843      116.64371057        1.71228499
      121.58812      113.05747900        1.60758546
      121.68782      115.61016291        1.80108623
      121.78751      118.93870554        1.74099562
      121.88720      117.88452432        1.71103931
      121.98690      116.74275820        1.71542241
      122.08659      116.22191617        1.74583591
      122.18628      114.89278664        2.01356513
      122.28598      113.77710380        1.88424570
      122.38567      115.20293529        1.81596963
      122.48536      113.40633520        1.70423183
      122.58506      113.63905296        1.61575556
      122.68475      107.52476887        1.78062370
      122.78444      107.44825368        1.67605231
      122.88414      105.87067833        1.64948902
      122.98383      103.06564683        1.66067463
      123.08352      104.29890700        1.65636739
      123.18322      105.69011907        1.94478504
      123.28291      100.24501692        1.72105153
      123.38260       99.96826513        1.65913181
      123.48230      103.64571044        1.62844867
      123.58199      101.85924896        1.50879841
      123.68168       98.15221694        1.68985599
      123.78138       94.32889094        1.49440751
      123.88107       91.60129119        1.43845629
      123.98076       88.06812039        1.43635508
      124.08046       86.91643903        1.41184098
      124.18015       87.69494794        1.60519303
      124.27984       88.31029771        1.44321605
      124.37954       86.68254542        1.34917824
      124.47923       82.20925345        1.28250212
      124.57893       77.48869537        1.32634558
