        5.04651       55.69679722        2.54389308
        5.14621       55.88906917        2.45592711
        5.24590       52.60764038        2.34829801
        5.34559       52.72371242        2.15615950
        5.44529       53.46233715        2.36214085
        5.54498       51.95086298        1.95858726
        5.64467       50.36383057        1.91147677
        5.74437       52.73765712        1.76580975
        5.84406       52.72476084        1.78677548
        5.94375       50.08040582        1.73889598
        6.04345       49.14042370        1.67367571
        6.14314       48.75907362        1.52645970
        6.24283       49.74940028        1.59283739
        6.34253       48.51245977        1.50016742
        6.44222       50.12400475        1.60573596
        6.54191       48.85921591        1.50180621
        6.64161       51.19630452        1.45646788
        6.74130       47.82029450        1.41314489
        6.84099       48.46659965        1.41239426
        6.94069       47.38524865        1.41752438
        7.04038       48.54139887        1.32439792
        7.14007       47.91188061        1.31302487
        7.23977       49.12413439        1.30634270
        7.33946       49.34634309        1.32934603
        7.43915       47.42629905        1.28613472
        7.53885       47.52737672        1.26375385
        7.63854       49.77961673        1.23625380
        7.73823       46.72341612        1.24351226
        7.83793       47.49889514        1.21333962
        7.93762       50.19468083        1.30123285
        8.03732       49.55610837        1.15950684
        8.13701       47.04341929        1.12452948
        8.23670       48.22742576        1.15470721
        8.33640       49.00931510        1.16438173
        8.43609       48.43607356        1.21014827
        8.53578       45.87114586        1.09683238
        8.63548       48.77274684        1.11810594
        8.73517       45.60227940        1.06042939
        8.83486       46.40331495        1.07233772
        8.93456       47.12952323        1.07517318
        9.03425       47.05019226        1.04280727
        9.13394       46.74198145        1.04133164
        9.23364       46.66649176        1.05567988
        9.33333       47.33565375        1.08489469
        9.43302       46.30185827        1.07334253
        9.53272       46.16242801        1.03551127
        9.63241       46.99133060        1.07432886
        9.73210       46.66299892        1.06841080
        9.83180       48.51818972        1.13526540
        9.93149       46.82674973        1.10725166
       10.03118       45.44103009        1.04945426
       10.13088       46.69525185        1.03839291
       10.23057       47.96981202        1.10219908
       10.33026       46.15639195        1.11749533
       10.42996       49.08967239        1.13678463
       10.52965       46.37806031        1.06998191
       10.62934       48.37969135        1.09553061
       10.72904       50.08194437        1.13118993
       10.82873       47.42837540        1.09516462
       10.92842       50.04923038        1.14397985
       11.02812       47.91445666        1.06630497
       11.12781       46.19628927        1.08450266
       11.22750       49.53634486        1.13434611
       11.32720       49.80577181        1.16803187
       11.42689       52.02037083        1.15239175
       11.52658       53.06662793        1.15009380
       11.62628       53.69917138        1.16950713
       11.72597       56.21140689        1.22207393
       11.82567       59.50133654        1.29244168
       11.92536       60.62113500        1.22086789
       12.02505       67.60189905        1.29556801
       12.12475       73.10559081        1.34630965
       12.22444       81.02994811        1.50337741
       12.32413       91.91436036        1.62612274
       12.42383      100.65321176        1.61552078
       12.52352      113.81086121        1.70778610
       12.62321      138.99566245        1.94213206
       12.72291      160.01300490        2.02854749
       12.82260      182.28751396        2.35446447
       12.92229      203.80489476        2.26179632
       13.02199      236.23748547        2.41724690
       13.12168      260.46222627        2.58277633
       13.22137      284.69923436        2.78820408
       13.32107      315.09940330        3.02876120
       13.42076      339.36433110        3.02608015
       13.52045      358.45809880        3.14781419
       13.62015      363.69710529        3.07298138
       13.71984      347.53487185        3.12990993
       13.81953      317.68101724        3.04220380
       13.91923      279.24625587        2.67840064
       14.01892      222.75140830        2.32792721
       14.11861      168.64063591        2.11223130
       14.21831      136.42220323        1.90136797
       14.31800      103.67607036        1.74417825
       14.41769       84.22336315        1.51368797
       14.51739       73.34057099        1.37795985
       14.61708       62.47445734        1.27472677
       14.71677       52.76781500        1.19034209
       14.81647       51.15410264        1.22773793
       14.91616       49.24939662        1.10777398
       15.01585       49.80228502        1.13408632
       15.11555       49.86419866        1.14794738
       15.21524       48.56671532        1.16758841
       15.31493       47.46896061        1.18210801
       15.41463       46.78748357        1.13627618
       15.51432       45.80646902        1.08942681
       15.61402       46.97923487        1.13126924
       15.71371       45.36069812        1.10391254
       15.81340       47.00539316        1.16909407
       15.91310       46.33378658        1.12778663
       16.01279       47.57958881        1.09431354
       16.11248       46.76132043        1.11396337
       16.21218       49.51074308        1.17812363
       16.31187       47.69198104        1.15903511
       16.41156       48.06578557        1.14191718
       16.51126       48.53773556        1.16693163
       16.61095       49.14156314        1.13219009
       16.71064       48.53818250        1.16076809
       16.81034       52.99311027        1.21672915
       16.91003       51.21392552        1.16156107
       17.00972       54.94909814        1.15519192
       17.10942       56.05445989        1.23323036
       17.20911       63.16987969        1.32104063
       17.30880       66.40519128        1.36633833
       17.40850       68.17962501        1.38420335
       17.50819       69.72524279        1.35926624
       17.60788       74.25131944        1.44645913
       17.70758       76.04343076        1.46993353
       17.80727       75.50089639        1.48273580
       17.90696       69.69809929        1.33171915
       18.00666       67.24458945        1.33093211
       18.10635       64.13101311        1.26411654
       18.20604       60.53813126        1.34720592
       18.30574       58.03515087        1.25705189
       18.40543       53.57586892        1.17772865
       18.50512       53.58387211        1.21499122
       18.60482       51.53262287        1.17273699
       18.70451       52.79572853        1.25445412
       18.80420       50.60521392        1.15367548
       18.90390       48.90317278        1.12193428
       19.00359       50.52983825        1.11069370
       19.10328       48.10797321        1.14649645
       19.20298       49.32431522        1.19707411
       19.30267       48.28839116        1.13739703
       19.40237       45.75795413        1.09456613
       19.50206       46.16462801        1.12707700
       19.60175       45.40975902        1.10526050
       19.70145       44.05334147        1.14147288
       19.80114       44.13856055        1.08366842
       19.90083       45.70535030        1.06552696
       20.00053       47.55320286        1.10620980
       20.10022       47.39608335        1.11257697
       20.19991       50.06769531        1.22264807
       20.29961       49.05438570        1.14664167
       20.39930       50.83994214        1.20266316
       20.49899       50.34728020        1.17600907
       20.59869       53.24354634        1.23159889
       20.69838       53.66688420        1.28210121
       20.79807       51.45640390        1.19732551
       20.89777       56.31185298        1.22441545
       20.99746       54.89489132        1.22087162
       21.09715       56.28396270        1.30219941
       21.19685       58.16050522        1.31691713
       21.29654       57.47469481        1.27701779
       21.39623       58.66245904        1.29026727
       21.49593       55.28369803        1.23450908
       21.59562       55.06860148        1.26176500
       21.69531       53.06296025        1.28819037
       21.79501       49.39342999        1.13681355
       21.89470       48.78168687        1.10430678
       21.99439       46.86046885        1.12815476
       22.09409       46.56359170        1.12735029
       22.19378       46.75617284        1.19971700
       22.29347       45.95302049        1.10768011
       22.39317       45.05172905        1.12514036
       22.49286       47.55799236        1.15519114
       22.59255       47.63110770        1.16967520
       22.69225       47.70497249        1.23356382
       22.79194       51.14691296        1.14726459
       22.89163       53.65681475        1.15220378
       22.99133       55.98907518        1.20971665
       23.09102       61.85248462        1.32076219
       23.19072       62.57058092        1.33157400
       23.29041       68.76061070        1.37880694
       23.39010       68.65405002        1.39216628
       23.48980       67.28665468        1.38316971
       23.58949       66.56754873        1.39417245
       23.68918       61.36643911        1.40736515
       23.78888       55.47776076        1.19230020
       23.88857       52.05197053        1.16987253
       23.98826       46.80692377        1.13393689
       24.08796       47.35477975        1.11835289
       24.18765       44.61895349        1.16308075
       24.28734       43.94515390        1.09894760
       24.38704       44.25317211        1.12123589
       24.48673       42.40824634        1.09361834
       24.58642       45.68405401        1.17276365
       24.68612       44.78252898        1.15956335
       24.78581       43.55585494        1.05413365
       24.88550       45.62669224        1.07854068
       24.98520       46.15472959        1.12491020
       25.08489       46.99354767        1.15778492
       25.18458       46.76024454        1.17915793
       25.28428       47.50064632        1.14548922
       25.38397       47.69697889        1.14228620
       25.48366       51.30130029        1.19189830
       25.58336       54.46408368        1.28017618
       25.68305       60.71170771        1.32589168
       25.78274       69.05658920        1.33493188
       25.88244       83.85837357        1.50875818
       25.98213      103.23702208        1.68841161
       26.08182      129.10017388        1.93868474
       26.18152      154.24172230        2.17131984
       26.28121      176.95221595        2.20067496
       26.38090      193.48676309        2.32127911
       26.48060      195.67122122        2.39883268
       26.58029      181.52828698        2.40964388
       26.67998      169.98757838        2.20226446
       26.77968      143.99281078        2.00200232
       26.87937      111.82850363        1.73794852
       26.97907       93.95364168        1.57931462
       27.07876       80.52046777        1.57383705
       27.17845       76.10481336        1.46206145
       27.27815       77.48881387        1.44078639
       27.37784       81.92616359        1.53938919
       27.47753       85.46873004        1.54926707
       27.57723       86.65986103        1.63427494
       27.67692       84.45134221        1.57462691
       27.77661       78.62745691        1.44994560
       27.87631       72.61111302        1.37003841
       27.97600       62.92178906        1.30376452
       28.07569       58.77592101        1.33352180
       28.17539       50.40031379        1.18185201
       28.27508       52.41161230        1.20583654
       28.37477       49.36164568        1.19795163
       28.47447       49.75259603        1.19330965
       28.57416       50.79857826        1.30365049
       28.67385       53.42154711        1.18950803
       28.77355       53.04491366        1.16389634
       28.87324       53.66256801        1.20185094
       28.97293       57.93606150        1.25188869
       29.07263       57.22700166        1.35621044
       29.17232       60.57162256        1.27346483
       29.27201       54.15241854        1.22607044
       29.37171       53.92765940        1.25864795
       29.47140       51.25728645        1.21282159
       29.57109       48.78719623        1.25460357
       29.67079       48.94468156        1.14403017
       29.77048       46.52240485        1.11785455
       29.87017       47.59190646        1.10848107
       29.96987       48.08119139        1.16825316
       30.06956       46.02886538        1.17917735
       30.16925       47.18589230        1.12418156
       30.26895       47.15167986        1.12806549
       30.36864       47.52218085        1.15101048
       30.46833       51.42350681        1.20962172
       30.56803       52.77991620        1.29456145
       30.66772       53.46366026        1.21248223
       30.76742       59.32940343        1.25194095
       30.86711       63.40901128        1.32023459
       30.96680       62.87442922        1.32222277
       31.06650       62.78429066        1.38542225
       31.16619       60.55320296        1.27917942
       31.26588       56.80302110        1.23133789
       31.36558       57.42553497        1.25431333
       31.46527       56.52074222        1.29476579
       31.56496       61.96823153        1.37775771
       31.66466       64.86391216        1.31834323
       31.76435       73.39525226        1.40128760
       31.86404       80.46319894        1.44819839
       31.96374       85.59610074        1.52851888
       32.06343       86.41142344        1.58931106
       32.16312       83.27673338        1.46611918
       32.26282       83.20148742        1.50132161
       32.36251       79.38240415        1.52501607
       32.46220       73.06339863        1.48905025
       32.56190       70.75958256        1.49131388
       32.66159       65.94654868        1.36700372
       32.76128       66.64502602        1.34343670
       32.86098       64.99994012        1.34660280
       32.96067       63.60499508        1.34869934
       33.06036       59.32206082        1.32606739
       33.16006       60.81495316        1.26451760
       33.25975       57.53539564        1.26976038
       33.35944       57.08034565        1.27156286
       33.45914       57.73104120        1.32746115
       33.55883       57.38173197        1.32651856
       33.65852       58.98005907        1.25412942
       33.75822       63.54120628        1.29962146
       33.85791       73.08422034        1.39984657
       33.95760       79.89367572        1.50704021
       34.05730       91.42598596        1.59690849
       34.15699      104.16792655        1.67789674
       34.25668      121.34589627        1.80523947
       34.35638      147.38736907        2.04184619
       34.45607      187.42783918        2.42659019
       34.55577      228.28743298        2.55293660
       34.65546      294.33416377        2.78202893
       34.75515      365.53645546        3.16119133
       34.85485      426.42703215        3.39025529
       34.95454      448.16252626        3.58527328
       35.05423      438.27676810        3.66680206
       35.15393      390.75980821        3.24991466
       35.25362      313.27997687        2.95284347
       35.35331      240.29007236        2.65157274
       35.45301      191.20736968        2.46759919
       35.55270      140.13144647        2.05536638
       35.65239      110.26052587        1.76018961
       35.75209       85.27087545        1.53575783
       35.85178       76.07464144        1.44834983
       35.95147       72.16347421        1.44372631
       36.05117       69.99508938        1.39255289
       36.15086       63.19790250        1.27204328
       36.25055       61.82458846        1.31443002
       36.35025       60.88002480        1.32986781
       36.44994       59.63650993        1.34247883
       36.54963       57.34567061        1.26363245
       36.64933       58.04915121        1.25242190
       36.74902       56.21278773        1.24525204
       36.84871       53.26522334        1.20329510
       36.94841       50.75368736        1.27012995
       37.04810       51.37062685        1.12674531
       37.14779       49.79381823        1.13200247
       37.24749       47.07018198        1.13111515
       37.34718       48.80080756        1.18117304
       37.44687       46.03657249        1.23223481
       37.54657       47.42871806        1.14188823
       37.64626       46.18383836        1.12243300
       37.74595       49.85897492        1.14815187
       37.84565       46.98298492        1.17917069
       37.94534       47.91888054        1.21322178
       38.04503       47.57138274        1.09254468
       38.14473       47.66159090        1.10430044
       38.24442       46.15336298        1.10648927
       38.34412       48.18875001        1.18213693
       38.44381       49.97127325        1.30174353
       38.54350       50.09576918        1.16183900
       38.64320       50.69433012        1.16524147
       38.74289       50.18514908        1.17451694
       38.84258       53.07135740        1.21086251
       38.94228       53.27734733        1.27250582
       39.04197       61.20424490        1.23016609
       39.14166       62.61968180        1.29444277
       39.24136       69.20650053        1.35744293
       39.34105       71.60693479        1.42903624
       39.44074       72.49284705        1.56839744
       39.54044       72.24546010        1.39994953
       39.64013       68.17482490        1.35559811
       39.73982       67.16960437        1.35098517
       39.83952       62.74002734        1.29667005
       39.93921       59.47284266        1.33846575
       40.03890       59.58979214        1.22639831
       40.13860       57.92362260        1.20750074
       40.23829       58.32984347        1.25461438
       40.33798       55.88380213        1.26619862
       40.43768       56.81099810        1.33577714
       40.53737       56.63658953        1.23786105
       40.63706       56.15703517        1.25846792
       40.73676       59.19169108        1.29010936
       40.83645       59.38099363        1.30296568
       40.93614       62.48690745        1.35914554
       41.03584       68.30805065        1.33755463
       41.13553       77.51132618        1.42676526
       41.23522       94.26432477        1.61228002
       41.33492      113.83197466        1.85537873
       41.43461      139.72959548        2.12258756
       41.53430      161.55754642        2.13804455
       41.63400      185.16341318        2.33966764
       41.73369      201.83787797        2.38993997
       41.83338      213.48408473        2.52423248
       41.93308      214.23027912        2.50610291
       42.03277      218.33059453        2.31251952
       42.13247      249.31130449        2.59892521
       42.23216      292.98159610        2.82389267
       42.33185      353.41650130        3.33113328
       42.43155      418.40674726        3.57286564
       42.53124      490.27667749        3.74730044
       42.63093      527.40604909        3.89367690
       42.73063      541.93237863        3.96449611
       42.83032      528.17890545        3.98279555
       42.93001      496.14864636        3.71491837
       43.02971      421.03074854        3.23081260
       43.12940      336.79318862        2.94636012
       43.22909      261.33262065        2.72631758
       43.32879      194.75322442        2.47736972
       43.42848      150.24696943        2.12711863
       43.52817      112.58220605        1.76068292
       43.62787       85.49584488        1.52843170
       43.72756       75.31894328        1.46832972
       43.82725       66.46884447        1.44002653
       43.92695       60.74191270        1.24813337
       44.02664       57.55038491        1.20899168
       44.12633       57.65682888        1.25523566
       44.22603       55.71272441        1.28422784
       44.32572       53.90781425        1.33133722
       44.42541       55.48596326        1.28964032
       44.52511       54.99586627        1.24937621
       44.62480       55.96077871        1.27814770
       44.72449       58.35330516        1.26493024
       44.82419       58.44748339        1.42051358
       44.92388       67.47952563        1.27332530
       45.02357       73.56716136        1.34057242
       45.12327       87.21941703        1.50394181
       45.22296      104.29880948        1.68847094
       45.32265      125.44709148        2.04916343
       45.42235      148.11444767        2.02808793
       45.52204      179.49849430        2.21140845
       45.62174      204.36308062        2.40324957
       45.72143      226.40196000        2.53026223
       45.82112      237.05631665        2.83471475
       45.92082      238.08232187        2.41171398
       46.02051      234.02797473        2.44189994
       46.12020      227.45531273        2.41502246
       46.21990      216.93849215        2.47814757
       46.31959      191.49731776        2.51286357
       46.41928      178.45531868        2.24039636
       46.51898      150.34355382        2.06675379
       46.61867      124.04943943        1.86696370
       46.71836       96.58293636        1.68861072
       46.81806       81.92813977        1.61215079
       46.91775       67.07107073        1.27096936
       47.01744       60.67302171        1.23744193
       47.11714       62.87223316        1.28853694
       47.21683       68.71852151        1.38700300
       47.31652       79.56411328        1.62866794
       47.41622       87.65252266        1.61117227
       47.51591      102.43824350        1.74547056
       47.61560      119.09552216        1.86681942
       47.71530      132.65678743        1.99180219
       47.81499      148.34590921        2.15983973
       47.91468      158.12012002        1.95080875
       48.01438      172.03823641        2.03635071
       48.11407      179.33529103        2.15723286
       48.21376      177.01786421        2.23753428
       48.31346      171.77374230        2.28246673
       48.41315      159.89251625        2.05217863
       48.51284      139.58860812        1.98043129
       48.61254      120.78030718        1.83408734
       48.71223      105.22930431        1.74259754
       48.81192       86.66935820        1.57707506
       48.91162       75.82310466        1.32208887
       49.01131       62.26347039        1.23961570
       49.11100       57.12769846        1.23002121
       49.21070       54.04306253        1.25592029
       49.31039       53.21577514        1.28261354
       49.41009       50.82928953        1.18409317
       49.50978       48.23532198        1.17724488
       49.60947       49.89595689        1.20617381
       49.70917       49.14762074        1.24145004
       49.80886       46.15590495        1.17076356
       49.90855       50.75222642        1.11851359
       50.00825       48.77961476        1.11964458
       50.10794       48.78340798        1.14517057
       50.20763       53.79193392        1.25657809
       50.30733       53.30719166        1.31028401
       50.40702       53.62424526        1.23240268
       50.50671       54.15743872        1.24217497
       50.60641       56.10963268        1.26624297
       50.70610       57.77141284        1.32214795
       50.80579       55.03991845        1.27336063
       50.90549       55.45571833        1.15238760
       51.00518       55.19041983        1.15980945
       51.10487       54.29396813        1.18907124
       51.20457       57.44001932        1.30217629
       51.30426       57.03613676        1.29082196
       51.40395       57.79502424        1.24571316
       51.50365       58.42648857        1.26683312
       51.60334       59.39157849        1.30252199
       51.70303       59.15923716        1.38048581
       51.80273       60.64541628        1.28215248
       51.90242       61.40689130        1.20545718
       52.00211       62.01153709        1.21713192
       52.10181       60.64973311        1.24173091
       52.20150       64.64213682        1.41197466
       52.30119       61.62533997        1.32789479
       52.40089       62.97629982        1.32141423
       52.50058       62.23723033        1.33841949
       52.60027       59.74298598        1.32911969
       52.69997       60.41103215        1.46475173
       52.79966       61.94736447        1.24709039
       52.89935       63.85853146        1.22179607
       52.99905       73.64496842        1.33391840
       53.09874       86.92764284        1.49649280
       53.19844       96.18300482        1.80293554
       53.29813      110.17063117        1.71532158
       53.39782      125.28239457        1.89289057
       53.49752      136.73643213        1.98694098
       53.59721      144.70567858        2.04272429
       53.69690      149.74347860        2.28025208
       53.79660      154.79213874        1.94230249
       53.89629      151.79998002        1.90249690
       53.99598      145.80157803        1.90981987
       54.09568      137.73213620        1.93807969
       54.19537      122.96218942        1.99638995
       54.29506      113.99914152        1.76564313
       54.39476      103.78085980        1.69731453
       54.49445       95.42927216        1.62841929
       54.59414       91.47454629        1.61846794
       54.69384       89.79755716        1.71063475
       54.79353       85.90448260        1.43461106
       54.89322       81.33277673        1.39069296
       54.99292       81.56470285        1.43350128
       55.09261       74.54373508        1.42484208
       55.19230       72.47373414        1.50866061
       55.29200       66.94248944        1.34930478
       55.39169       60.93914940        1.32810637
       55.49138       59.59300708        1.30844567
       55.59108       57.74854812        1.32927322
       55.69077       55.52791652        1.33760547
       55.79046       53.57630960        1.14862940
       55.89016       56.77245075        1.17970234
       55.98985       54.56149910        1.16382566
       56.08954       58.87407782        1.24897105
       56.18924       66.36680193        1.43145510
       56.28893       70.18104454        1.34734227
       56.38862       81.01663779        1.49784198
       56.48832       96.12043497        1.66024623
       56.58801      103.78740795        1.77533674
       56.68770      115.41693696        1.93288025
       56.78740      116.74870399        1.66374374
       56.88709      115.47183089        1.67106526
       56.98679      105.33216822        1.59696496
       57.08648       94.33093547        1.60158596
       57.18617       87.68146359        1.59862613
       57.28587       75.90355045        1.38927677
       57.38556       67.74772178        1.39691323
       57.48525       60.70778750        1.34749702
       57.58495       55.28379269        1.31515921
       57.68464       54.64284164        1.31891184
       57.78433       53.63068161        1.14301647
       57.88403       53.27579155        1.15249548
       57.98372       51.47589047        1.15082623
       58.08341       50.31770636        1.23018219
       58.18311       53.93117487        1.30296300
       58.28280       53.08042449        1.21749172
       58.38249       52.54187854        1.26567022
       58.48219       52.28308690        1.28980043
       58.58188       52.40813211        1.30547031
       58.68157       53.13925041        1.28817521
       58.78127       53.71512296        1.13288224
       58.88096       54.32592587        1.12251908
       58.98065       55.17604699        1.17437803
       59.08035       56.34516673        1.26637863
       59.18004       57.48363327        1.29758361
       59.27973       60.98025949        1.26108464
       59.37943       64.59791760        1.34089410
       59.47912       67.00816484        1.42175409
       59.57881       69.07638226        1.51229031
       59.67851       77.40625661        1.49289280
       59.77820       83.60356228        1.42649613
       59.87789       91.87915630        1.49043023
       59.97759       99.00227255        1.61868850
       60.07728      107.47478475        1.82680985
       60.17697      108.08831192        1.74521804
       60.27667      106.62908358        1.68517068
       60.37636      104.99766273        1.70456903
       60.47605      106.25998690        1.78903106
       60.57575      103.32590686        1.93329452
       60.67544       94.97347518        1.59202140
       60.77514       88.29066551        1.45904164
       60.87483       78.78998394        1.35121197
       60.97452       70.03327299        1.34171587
       61.07422       66.68776116        1.47067931
       61.17391       66.14182559        1.26871207
       61.27360       64.45609979        1.29683778
       61.37330       66.97636727        1.37109700
       61.47299       68.68499983        1.44958392
       61.57268       69.20605788        1.65470568
       61.67238       74.84941367        1.40280915
       61.77207       71.71921058        1.33721255
       61.87176       69.16049825        1.29839464
       61.97146       69.55792488        1.35189772
       62.07115       67.68724716        1.51028658
       62.17084       69.73476635        1.34315917
       62.27054       65.70520151        1.35923465
       62.37023       67.38521455        1.43142326
       62.46992       67.75904188        1.48460414
       62.56962       64.46157355        1.62616490
       62.66931       68.71683436        1.35277537
       62.76900       73.35606546        1.36250701
       62.86870       83.30837735        1.42075382
       62.96839       87.98006476        1.50678825
       63.06808       96.15210580        1.75338403
       63.16778      107.59287064        1.64699892
       63.26747      111.96485073        1.73879709
       63.36716      116.64166431        1.84197061
       63.46686      125.24050060        1.96638787
       63.56655      126.19934310        2.09697687
       63.66624      134.65417474        1.84147212
       63.76594      151.49785860        1.89823851
       63.86563      160.44921018        1.94785354
       63.96532      175.26862651        2.13120702
       64.06502      173.80537621        2.27342933
       64.16471      169.38774559        2.07569559
       64.26440      166.24201574        2.14066028
       64.36410      151.26536231        2.08244564
       64.46379      131.17987138        2.04981570
       64.56349      122.02914257        2.01187947
       64.66318      102.05868615        1.60954260
       64.76287       82.76847040        1.43085681
       64.86257       72.29986381        1.33493566
       64.96226       61.36966177        1.28786149
       65.06195       59.20701356        1.36776401
       65.16165       56.11697704        1.20109172
       65.26134       56.83615644        1.23709851
       65.36103       55.33945802        1.27370953
       65.46073       54.42984719        1.30465970
       65.56042       54.33838917        1.36148746
       65.66011       57.45953183        1.22091251
       65.75981       58.54803829        1.22013961
       65.85950       60.40371662        1.23149089
       65.95919       64.47680028        1.33204571
       66.05889       66.48868883        1.39920997
       66.15858       71.00451009        1.37515273
       66.25827       77.96385096        1.49048831
       66.35797       88.01576274        1.65015243
       66.45766       99.27123267        1.86254057
       66.55735      111.81718698        1.97674265
       66.65705      124.01826407        1.84705996
       66.75674      140.84804531        1.91885993
       66.85643      152.48490235        1.97428371
       66.95613      162.78884127        2.12146349
       67.05582      169.65957722        2.18240390
       67.15551      167.68382034        2.06453674
       67.25521      160.24553168        2.11800446
       67.35490      148.53015121        2.14613746
       67.45459      137.40330695        2.17660153
       67.55429      121.57248139        1.96100823
       67.65398      102.06514329        1.60989991
       67.75367       85.47413604        1.46064230
       67.85337       80.65456645        1.43624518
       67.95306       76.47687852        1.49533018
       68.05275       76.91014071        1.41994170
       68.15245       81.80491194        1.45200483
       68.25214       88.79688882        1.60591029
       68.35184       96.79866634        1.74774934
       68.45153      103.49204739        1.98971874
       68.55122      106.83982272        1.74161406
       68.65092      117.04224479        1.69948558
       68.75061      124.25482119        1.76943125
       68.85030      130.07707159        1.84557856
       68.95000      127.32537788        2.07001088
       69.04969      121.52549125        1.70761653
       69.14938      114.31704300        1.70280744
       69.24908      101.75528831        1.71515416
       69.34877       92.29849851        1.68915818
       69.44846       82.66046746        1.85375261
       69.54816       76.30315606        1.38847011
       69.64785       67.10066589        1.28342770
       69.74754       59.67395755        1.22224471
       69.84724       54.26456864        1.19573441
       69.94693       54.14551356        1.34799243
       70.04662       49.96611465        1.06472137
       70.14632       45.06735250        1.05131076
       70.24601       49.68690088        1.18215080
       70.34570       47.94381850        1.22872879
       70.44540       47.85204830        1.44634201
       70.54509       47.80268811        1.13151503
       70.64478       47.92425686        1.13134649
       70.74448       50.02834386        1.17432387
       70.84417       49.36102557        1.21039370
       70.94386       49.89327530        1.33584217
       71.04356       49.81853582        1.10457462
       71.14325       52.15519032        1.17455571
       71.24294       52.84786746        1.24403178
       71.34264       55.92208356        1.35707293
       71.44233       53.57065327        1.48204428
       71.54202       56.68802398        1.24131563
       71.64172       54.48676376        1.18371802
       71.74141       50.15752873        1.11493942
       71.84110       51.37464366        1.16810703
       71.94080       52.01546277        1.28081504
       72.04049       51.90680367        1.08294636
       72.14019       49.76837905        1.10475679
       72.23988       53.46645168        1.19825181
       72.33957       51.54217713        1.31405924
       72.43927       55.90423601        1.50671473
       72.53896       55.32813070        1.20179454
       72.63865       52.74872421        1.14688620
       72.73835       56.12237599        1.15711325
       72.83804       56.11314488        1.22176810
       72.93773       58.30826734        1.32302923
       73.03743       60.08499711        1.16584103
       73.13712       63.20369456        1.26110966
       73.23681       64.35909694        1.33701917
       73.33651       64.39882854        1.47164841
       73.43620       65.79161562        1.61122806
       73.53589       65.75693001        1.29941631
       73.63559       65.70742763        1.27852781
       73.73528       65.01673161        1.26598103
       73.83497       67.78834562        1.37059100
       73.93467       65.26178227        1.41595918
       74.03436       63.87734004        1.23969623
       74.13405       62.28523654        1.27612319
       74.23375       63.14471334        1.33844595
       74.33344       62.33119668        1.46388107
       74.43313       64.70271976        1.54776949
       74.53283       63.98721440        1.30772102
       74.63252       69.09325867        1.34928910
       74.73221       70.72756829        1.35854971
       74.83191       75.66559652        1.49084661
       74.93160       79.33846673        1.54397762
       75.03129       80.20571484        1.38012782
       75.13099       86.05197604        1.48096658
       75.23068       88.59909557        1.56750913
       75.33037       96.84387137        1.80181995
       75.43007      103.76847933        1.89237755
       75.52976      110.35136755        1.69527461
       75.62945      122.02036551        1.78165328
       75.72915      129.72992101        1.83012723
       75.82884      133.50814247        1.99904794
       75.92854      134.65501835        1.88462174
       76.02823      143.43111384        1.82467472
       76.12792      149.22754656        1.94563733
       76.22762      156.85826741        2.10511520
       76.32731      149.33913130        2.31918372
       76.42700      148.06240722        2.17942196
       76.52670      146.64703834        2.00091506
       76.62639      143.42554144        1.95365430
       76.72608      127.23492972        1.80862179
       76.82578      125.12393267        2.06658804
       76.92547      120.11310247        1.62155636
       77.02516      119.18195554        1.67409574
       77.12486      120.97244301        1.77186623
       77.22455      127.85869931        1.94002200
       77.32424      132.84356065        2.42975022
       77.42394      136.71721866        1.96839183
       77.52363      134.01091572        1.88297764
       77.62332      139.59373007        1.91332470
       77.72302      142.37522154        1.93678844
       77.82271      147.15075242        2.30948370
       77.92240      148.47852092        1.77649036
       78.02210      145.44932737        1.89704640
       78.12179      144.74432487        2.02120402
       78.22148      138.84239447        2.09294612
       78.32118      135.12014966        2.39554614
       78.42087      127.23520176        1.82907313
       78.52056      122.53955295        1.85344514
       78.62026      115.44447964        1.78452560
       78.71995      102.53898984        1.68679641
       78.81964       98.67245577        1.84810629
       78.91934       92.11143414        1.38335340
       79.01903       82.46203343        1.43459250
       79.11872       74.34808346        1.41729267
       79.21842       66.91053407        1.43396870
       79.31811       66.20389731        1.60667577
       79.41780       66.05775412        1.30190169
       79.51750       65.78491799        1.32012738
       79.61719       61.93675499        1.28452976
       79.71689       64.33958211        1.35938399
       79.81658       68.06150749        1.48229726
       79.91627       63.51914715        1.21362483
       80.01597       61.83463471        1.23070470
       80.11566       65.09507268        1.32016747
       80.21535       62.28789856        1.38029622
       80.31505       68.97590582        1.72709209
       80.41474       64.01451332        1.27828073
       80.51443       67.16965161        1.30381217
       80.61413       70.49947621        1.38018967
       80.71382       79.93702423        1.52080470
       80.81351       82.21243312        1.73314612
       80.91321       90.02655095        1.33771775
       81.01290      106.43852000        1.57092630
       81.11259      123.39088945        1.82634125
       81.21229      141.56689186        2.11680565
       81.31198      151.22778755        2.44082216
       81.41167      174.42177756        2.05346695
       81.51137      198.89814651        2.25699619
       81.61106      214.51147868        2.44806955
       81.71075      228.27072037        2.61430195
       81.81045      235.20166674        2.81149198
       81.91014      260.37760639        2.27593073
       82.00983      274.13450956        2.49661216
       82.10953      284.24944737        2.84447128
       82.20922      291.22592609        3.20242851
       82.30891      295.56736754        3.38316429
       82.40861      302.39490228        2.78335864
       82.50830      289.97424220        2.71738092
       82.60799      291.00617667        2.93250909
       82.70769      293.87919924        3.20740264
       82.80738      284.94232481        3.01668604
       82.90707      279.73006648        2.42684234
       83.00677      273.99224099        2.55900662
       83.10646      267.21510146        2.97339262
       83.20615      247.58449094        3.18418803
       83.30585      239.76295440        2.96830248
       83.40554      218.85618253        2.35675154
       83.50524      203.44472244        2.21672377
       83.60493      185.98093619        2.33422396
       83.70462      171.01174675        2.52330563
       83.80432      155.03583672        2.09897151
       83.90401      133.86517767        1.63539697
       84.00370      111.53932001        1.55620730
       84.10340       92.45201783        1.69223521
       84.20309       84.89732330        1.96838049
       84.30278       79.54925153        1.54942062
       84.40248       75.43853570        1.33155103
       84.50217       67.97532443        1.23971558
       84.60186       66.33882043        1.38476425
       84.70156       66.33032843        1.81197121
       84.80125       66.78617488        1.26587441
       84.90094       65.19028425        1.12342601
       85.00064       64.14792873        1.14813108
       85.10033       62.79527656        1.34431834
       85.20002       63.33091349        2.31549809
       85.29972       63.77682933        1.22575149
       85.39941       65.51985670        1.26675033
       85.49910       66.58180617        1.24187124
       85.59880       67.97682420        1.41106219
       85.69849       64.73362326        2.47189131
       85.79818       63.36877490        1.15300210
       85.89788       63.25483552        1.12443651
       85.99757       63.08008124        1.15375716
       86.09726       61.34669646        1.30627652
       86.19696       65.51450109        2.59310838
       86.29665       62.88060096        1.20209992
       86.39634       62.14226542        1.21572959
       86.49604       61.57292627        1.19182240
       86.59573       56.56521060        1.21692177
       86.69542       56.73025328        2.54806079
       86.79512       56.25016352        1.05322051
       86.89481       55.16131537        1.02824020
       86.99451       54.63138731        1.06066348
       87.09420       53.08630739        1.16601688
       87.19389       56.21867012        2.84267035
       87.29359       53.18716363        1.12044618
       87.39328       53.36946266        1.13753586
       87.49297       49.83478432        1.06695989
       87.59267       48.91752936        1.07784719
       87.69236       54.66849470        3.41024585
       87.79205       51.18829819        1.02783702
       87.89175       49.35554728        1.00107874
       87.99144       49.82088230        1.04806107
       88.09113       49.21691954        1.10716678
       88.19083       52.87581310        6.07348733
       88.29052       47.50822343        1.09456649
       88.39021       48.15115564        1.10931826
       88.48991       49.42068801        1.07862349
       88.58960       48.36741804        1.03332434
       88.68929       42.50499234        7.50248779
       88.78899       49.70126040        1.01110730
       88.88868       48.93830234        0.98137738
       88.98837       48.65474558        1.01775165
       89.08807       50.76369855        1.06488913
       89.18776       51.29488440        8.70990849
       89.28745       49.53378699        1.06870527
       89.38715       51.51226307        1.10111040
       89.48684       53.66471274        1.09991576
       89.58653       55.00371914        1.09098031
       89.68623       69.76833460        9.96610398
       89.78592       58.59421258        1.09427093
       89.88561       62.30402272        1.10637070
       89.98531       64.44303818        1.15385637
       90.08500       70.62982682        1.25309853
       90.18469       81.07995792       11.20157151
       90.28439       76.70931270        1.33400227
       90.38408       80.67401172        1.39116857
       90.48377       86.72202846        1.41555539
       90.58347       91.57196871        1.43194243
       90.68316      100.98094178       11.71699207
       90.78286       92.75977885        1.37960275
       90.88255       94.48368964        1.35489299
       90.98224       98.56736969        1.43198859
       91.08194      100.88770209        1.49639761
       91.18163       84.76489453       10.93897182
       91.28132       99.61815712        1.53089348
       91.38102       97.11626179        1.55152516
       91.48071       96.94794028        1.51213362
       91.58040       90.07133395        1.40926728
       91.68010       85.60287382       10.39211900
       91.77979       87.95068280        1.33672990
       91.87948       83.55927615        1.28261679
       91.97918       81.47956230        1.31510603
       92.07887       77.39263171        1.33493517
       92.17856       81.47278771       10.41564990
       92.27826       75.09479360        1.35798613
       92.37795       76.44628419        1.40272168
       92.47764       72.47289009        1.29635539
       92.57734       75.90958496        1.28722626
       92.67703       80.99091003        8.63239098
       92.77672       81.58113898        1.28639287
       92.87642       81.59836752        1.26196100
       92.97611       88.16473138        1.37004893
       93.07580       92.43371406        1.60130956
       93.17550       90.24974417        2.97508020
       93.27519       92.08714711        1.47317507
       93.37488       93.74385574        1.44493852
       93.47458       96.72575774        1.48403239
       93.57427       98.27255187        1.72948440
       93.67396       98.86989421        2.34439274
       93.77366       99.36932014        1.45599889
       93.87335       98.62458084        1.38550599
       93.97304       96.40355360        1.42741402
       94.07274       91.99550591        1.81006350
       94.17243       87.95555180        2.01917370
       94.27212       90.36846977        1.52453156
       94.37182       91.39004312        1.49423492
       94.47151       86.50187336        1.39195985
       94.57121       87.72473195        1.85007834
       94.67090       85.02258842        1.84228065
       94.77059       84.82978889        1.43050303
       94.87029       77.09123509        1.23972447
       94.96998       70.36780074        1.19915667
       95.06967       69.34999558        1.37229119
       95.16937       69.46234071        1.88006440
       95.26906       64.38836176        1.39809766
       95.36875       62.66529062        1.25146707
       95.46845       61.12396518        1.18776873
       95.56814       57.32666648        1.32344611
       95.66783       60.24441070        1.52435643
       95.76753       57.33310774        1.22873542
       95.86722       54.05270997        1.01472622
       95.96691       51.44168246        1.02669677
       96.06661       54.61277494        1.35530323
       96.16630       51.49476722        1.40327407
       96.26599       54.21699049        1.29323707
       96.36569       50.17840122        1.11618113
       96.46538       50.08170461        1.07617137
       96.56507       46.77756499        1.28356282
       96.66477       48.77658141        1.27727551
       96.76446       45.06649004        1.09698592
       96.86415       49.35390350        0.99452540
       96.96385       45.53256799        0.98648907
       97.06354       48.15299417        1.37190949
       97.16323       47.56879373        1.30375409
       97.26293       46.09747740        1.20572230
       97.36262       48.26370261        1.14255766
       97.46231       47.92530403        1.04742898
       97.56201       47.60442718        1.32810030
       97.66170       51.43656916        1.24013416
       97.76139       53.38432396        1.14785919
       97.86109       53.38625194        1.03796936
       97.96078       55.65982365        1.08307924
       98.06047       55.81179867        1.50643712
       98.16017       57.35405058        1.35761710
       98.25986       54.66503400        1.26588175
       98.35956       59.51964001        1.24725739
       98.45925       60.77135719        1.17641502
       98.55894       65.47806044        1.59316440
       98.65864       65.75114235        1.36981538
       98.75833       67.73212022        1.29913562
       98.85802       66.68906988        1.20360314
       98.95772       71.52567357        1.23837515
       99.05741       74.16767838        1.75079387
       99.15710       71.68007095        1.48008182
       99.25680       73.78488038        1.45492385
       99.35649       78.83846823        1.43262517
       99.45618       82.93574729        1.36952617
       99.55588       84.97140980        1.85239203
       99.65557       85.09364903        1.52930622
       99.75526       86.24106113        1.44305852
       99.85496       87.58103220        1.38416487
       99.95465       83.92765223        1.32823186
      100.05434       83.96658066        1.89261279
      100.15404       86.34454138        1.61668614
      100.25373       85.11465625        1.58583923
      100.35342       84.57190498        1.57456650
      100.45312       84.30420057        1.43450480
      100.55281       85.49362096        1.89741558
      100.65250       79.95230098        1.49452486
      100.75220       80.25164682        1.38695610
      100.85189       80.03122882        1.32340847
      100.95158       80.70929369        1.29352553
      101.05128       80.21466490        1.83848818
      101.15097       78.37319841        1.50183014
      101.25066       76.57429535        1.46660470
      101.35036       78.50649172        1.49796796
      101.45005       78.56589395        1.40917060
      101.54974       76.31638124        1.72972283
      101.64944       74.38554534        1.39317683
      101.74913       73.79659133        1.30743947
      101.84882       75.49846616        1.28735638
      101.94852       76.23376462        1.36268019
      102.04821       79.95348573        1.68109187
      102.14791       78.81717494        1.50418485
      102.24760       82.96897220        1.53048445
      102.34729       79.49249882        1.49178079
      102.44699       79.91109283        1.52173051
      102.54668       84.19610852        1.63928194
      102.64637       82.96839703        1.45330343
      102.74607       84.29259323        1.39514610
      102.84576       84.05101733        1.36667997
      102.94545       84.74209570        1.56300446
      103.04515       85.65543690        1.66358358
      103.14484       84.27862714        1.54167818
      103.24453       84.47705723        1.51968975
      103.34423       83.05278431        1.49455199
      103.44392       85.58192302        1.64355386
      103.54361       85.48380050        1.59570479
      103.64331       89.10912857        1.48318576
      103.74300       88.19773397        1.40746094
      103.84269       86.62237844        1.37061322
      103.94239       82.61059296        1.60827247
      104.04208       85.52019098        1.58322744
      104.14177       83.84111924        1.52505264
      104.24147       82.85137223        1.51520045
      104.34116       80.45751605        1.50229394
      104.44085       79.00214386        1.69065239
      104.54055       79.04412887        1.53110974
      104.64024       80.41691548        1.45174885
      104.73993       75.90251053        1.34569096
      104.83963       73.78811117        1.27820706
      104.93932       70.30122823        1.51232280
      105.03901       72.94842224        1.45169907
      105.13871       70.35831668        1.37264534
      105.23840       72.06354391        1.38846533
      105.33809       69.11365204        1.36763499
      105.43779       69.57775782        1.59665885
      105.53748       67.09488863        1.40596524
      105.63717       64.57066664        1.26414519
      105.73687       65.14336508        1.20841485
      105.83656       60.42294805        1.13385379
      105.93626       60.89951096        1.44255475
      106.03595       62.10304581        1.32033830
      106.13564       58.19794832        1.23518557
      106.23534       56.02712632        1.22676010
      106.33503       56.02466806        1.23912599
      106.43472       54.21625054        1.44100093
      106.53442       53.74284158        1.24788445
      106.63411       52.12001307        1.11626971
      106.73380       52.56119216        1.06842020
      106.83350       53.94966534        1.06633180
      106.93319       56.47707675        1.41443901
      107.03288       54.15639338        1.22747036
      107.13258       56.84315255        1.22074212
      107.23227       57.40055015        1.24454059
      107.33196       57.08347852        1.23767817
      107.43166       54.93196509        1.45871861
      107.53135       56.56852543        1.27726482
      107.63104       59.95284311        1.19745585
      107.73074       61.00574999        1.15893943
      107.83043       61.96768162        1.15331507
      107.93012       62.61262221        1.53363697
      108.02982       61.78554606        1.33339598
      108.12951       65.17598629        1.30248632
      108.22920       63.22669102        1.26220420
      108.32890       65.52681190        1.27281034
      108.42859       70.83071016        1.67981265
      108.52828       66.79431104        1.38350610
      108.62798       69.63525504        1.28103159
      108.72767       67.54379285        1.21088286
      108.82736       68.73120538        1.24844625
      108.92706       66.15417818        1.55108215
      109.02675       65.61901077        1.35141162
      109.12644       64.22808427        1.30487804
      109.22614       63.84164349        1.30195261
      109.32583       66.60760974        1.44927222
      109.42552       67.15451123        1.53500368
      109.52522       67.01538435        1.38343290
      109.62491       64.48824050        1.29071402
      109.72461       63.88650586        1.22819936
      109.82430       63.77635606        1.14630609
      109.92399       60.09390505        1.44655548
      110.02369       59.57802643        1.26128754
      110.12338       61.04428177        1.26846049
      110.22307       58.86721939        1.23621914
      110.32277       59.23878795        1.26637475
      110.42246       60.62450261        1.55774816
      110.52215       58.72213982        1.29840469
      110.62185       58.41068451        1.22042870
      110.72154       55.08790797        1.10561239
      110.82123       54.68722415        1.13765852
      110.92093       55.67430342        1.33884889
      111.02062       55.06001933        1.23003185
      111.12031       54.06134207        1.22788296
      111.22001       57.93394096        1.24745945
      111.31970       58.51230626        1.36060697
      111.41939       57.63139795        1.39723110
      111.51909       59.39230737        1.28711973
      111.61878       60.25966347        1.22134790
      111.71847       60.56975697        1.13925683
      111.81817       63.63690388        1.26755013
      111.91786       68.37469537        1.38293480
      112.01755       65.37605563        1.32027498
      112.11725       70.88565411        1.38546445
      112.21694       72.19178510        1.39195533
      112.31663       72.23854999        1.53436490
      112.41633       75.35435142        1.53967600
      112.51602       78.37474411        1.44614111
      112.61571       81.01162384        1.40265203
      112.71541       85.00345607        1.35420762
      112.81510       87.73706712        1.54280623
      112.91479       87.07640248        1.56561879
      113.01449       88.24871198        1.54348353
      113.11418       87.09996874        1.52821791
      113.21387       88.13258205        1.53031258
      113.31357       92.08920182        1.73750255
      113.41326       91.52106973        1.64609650
      113.51296       90.55203694        1.54012969
      113.61265       89.85439967        1.48029880
      113.71234       94.13737077        1.44746467
      113.81204       93.64623490        1.65390921
      113.91173       86.80095429        1.54261138
      114.01142       90.56455850        1.56003486
      114.11112       87.50151848        1.53244826
      114.21081       84.86917562        1.51999718
      114.31050       88.39063353        1.75935272
      114.41020       89.16572930        1.63289625
      114.50989       88.40762786        1.52210548
      114.60958       87.06274285        1.46164946
      114.70928       82.89441761        1.37536715
      114.80897       84.48850306        1.57493570
      114.90866       82.63002083        1.46895808
      115.00836       82.06144519        1.45702390
      115.10805       83.30576895        1.47608964
      115.20774       87.25311053        1.53373008
      115.30744       85.64009116        1.74455025
      115.40713       85.69651390        1.58066625
      115.50682       85.68254629        1.49214859
      115.60652       86.57217117        1.44558221
      115.70621       87.70871062        1.39845430
      115.80590       90.05972421        1.65326725
      115.90560       94.43504921        1.53467013
      116.00529       94.92081247        1.55580599
      116.10498       97.92991553        1.59695460
      116.20468       98.15607460        1.63551796
      116.30437      101.61206966        1.98390425
      116.40406      102.17105859        1.73267734
      116.50376      102.51457729        1.64014098
      116.60345      102.84366798        1.57695371
      116.70314      111.02270187        1.58921171
      116.80284      115.76973913        1.92855727
      116.90253      117.49771500        1.74783963
      117.00222      124.47647133        1.78520495
      117.10192      129.55001863        1.87035146
      117.20161      130.62504612        1.90103053
      117.30131      135.69636640        2.31896361
      117.40100      134.62213403        1.94175015
      117.50069      135.75197253        1.85199291
      117.60039      143.52665447        1.82290659
      117.70008      150.18144323        1.80688880
      117.79977      158.02741441        2.27187861
      117.89947      160.06120073        1.98782140
      117.99916      159.95858525        2.01087401
      118.09885      166.93991666        2.09331512
      118.19855      169.08499624        2.20671912
      118.29824      170.15855128        2.42690243
      118.39793      168.34743703        2.19154245
      118.49763      174.54058428        2.10616439
      118.59732      179.10616441        2.06021054
      118.69701      180.28379872        2.15333951
      118.79671      174.70578670        2.28840945
      118.89640      177.55904752        2.15117533
      118.99609      174.65730494        2.13102630
      119.09579      174.86366833        2.15715408
      119.19548      176.53694875        2.36842820
      119.29517      177.48563730        2.46730225
      119.39487      171.72542327        2.23054725
      119.49456      171.98316432        2.10358784
      119.59425      171.47877887        2.03988247
      119.69395      165.79383970        2.11570388
      119.79364      163.27602752        2.12169771
      119.89333      154.45134612        1.99654152
      119.99303      152.24239284        1.93519602
      120.09272      148.89262770        1.95717528
      120.19241      144.45277653        2.16651874
      120.29211      138.78270297        2.10150285
      120.39180      135.88011945        1.98364626
      120.49149      132.11407582        1.81890452
      120.59119      130.09317948        1.75176759
      120.69088      124.84562341        1.84702204
      120.79057      118.64930299        1.76156588
      120.89027      122.23672894        1.75561869
      120.98996      119.97109625        1.72576862
      121.08966      120.41554755        1.74193260
      121.18935      121.30229434        2.00410680
      121.28904      118.17374737        1.92773703
      121.38874      118.82304436        1.82799518
      121.48843      116.22619051        1.70743045
      121.58812      116.99418395        1.63387358
      121.68782      117.36586660        1.81295126
      121.78751      114.61330506        1.70702444
      121.88720      117.37153035        1.70552147
      121.98690      115.11415938        1.70156152
      122.08659      110.23283168        1.69814812
      122.18628      111.73799752        1.98346065
      122.28598      111.05433364        1.85946603
      122.38567      106.97431187        1.74760407
      122.48536      109.41497528        1.67201218
      122.58506      109.41571720        1.58357713
      122.68475      108.50111035        1.78690550
      122.78444      107.45064669        1.67434192
      122.88414      107.51227966        1.66060871
      122.98383      106.66851414        1.68792147
      123.08352      105.12450094        1.66124226
      123.18322       99.84735700        1.88792707
      123.28291      103.61428338        1.74813585
      123.38260      103.02546134        1.68275239
      123.48230      100.37353198        1.60069901
      123.58199       98.49560030        1.48197066
      123.68168       98.96856112        1.69516564
      123.78138       95.80601484        1.50458563
      123.88107       92.75938043        1.44608453
      123.98076       89.76670941        1.44872896
      124.08046       89.73535455        1.43321295
      124.18015       84.57915830        1.57461779
      124.27984       86.53529661        1.42707342
      124.37954       87.01956847        1.35041784
      124.47923       83.74313061        1.29314338
      124.57893       81.62003897        1.36003416
