        5.04651       59.34200301        2.62886195
        5.14621       53.18518134        2.39802279
        5.24590       52.02507940        2.33761848
        5.34559       54.37818401        2.19211268
        5.44529       53.61843879        2.36803774
        5.54498       47.34421890        1.87135853
        5.64467       50.18521720        1.91003908
        5.74437       50.74189200        1.73373886
        5.84406       47.99270312        1.70618188
        5.94375       52.04702925        1.77465995
        6.04345       51.28672883        1.71172751
        6.14314       51.69244689        1.57348813
        6.24283       49.59831340        1.59204784
        6.34253       49.96877508        1.52416568
        6.44222       48.66705751        1.58377677
        6.54191       49.21530535        1.50884164
        6.64161       47.82667603        1.40900525
        6.74130       50.11429604        1.44825140
        6.84099       48.74899983        1.41797747
        6.94069       49.62088443        1.45218818
        7.04038       48.00759302        1.31842868
        7.14007       49.22963201        1.33239283
        7.23977       47.30247969        1.28313174
        7.33946       46.95211720        1.29792326
        7.43915       47.09436616        1.28293240
        7.53885       47.43256187        1.26379004
        7.63854       47.10372004        1.20369379
        7.73823       46.49950750        1.24179835
        7.83793       47.17143238        1.21038260
        7.93762       48.39806970        1.27896945
        8.03732       46.59410333        1.12536235
        8.13701       47.59898874        1.13233856
        8.23670       49.22501562        1.16783238
        8.33640       48.47043846        1.15913436
        8.43609       47.41930274        1.19857069
        8.53578       46.72486523        1.10816676
        8.63548       47.11586253        1.10001872
        8.73517       46.38167328        1.07058507
        8.83486       46.56252701        1.07528934
        8.93456       48.45095904        1.09131674
        9.03425       45.04646880        1.02134068
        9.13394       46.08848804        1.03506898
        9.23364       46.45372440        1.05434862
        9.33333       46.22191962        1.07311901
        9.43302       45.79572175        1.06854152
        9.53272       46.96074164        1.04553300
        9.63241       47.14082650        1.07715150
        9.73210       46.51538911        1.06781390
        9.83180       48.33168706        1.13424199
        9.93149       47.02678311        1.11076597
       10.03118       47.97577764        1.07953511
       10.13088       48.11541794        1.05520475
       10.23057       46.96054214        1.09162800
       10.33026       47.68580546        1.13709118
       10.42996       46.88951855        1.11207699
       10.52965       46.51097595        1.07262387
       10.62934       46.52436791        1.07535621
       10.72904       46.23931460        1.08790091
       10.82873       48.19283766        1.10512331
       10.92842       49.38510399        1.13750929
       11.02812       49.65332162        1.08666676
       11.12781       50.09558171        1.13066499
       11.22750       49.87626818        1.13941841
       11.32720       48.61052662        1.15507239
       11.42689       52.34324299        1.15716701
       11.52658       53.46855402        1.15564707
       11.62628       53.09925829        1.16412997
       11.72597       53.78853017        1.19657610
       11.82567       59.03722936        1.28869645
       11.92536       62.44513391        1.24045467
       12.02505       66.70217879        1.28820189
       12.12475       71.83098859        1.33583510
       12.22444       82.45517184        1.51817693
       12.32413       94.43407085        1.65010093
       12.42383      103.78382231        1.64231733
       12.52352      122.01600459        1.77059914
       12.62321      142.10799812        1.96598097
       12.72291      166.22914555        2.07013834
       12.82260      190.49410406        2.41002739
       12.92229      209.18092549        2.29419925
       13.02199      243.40092002        2.45672977
       13.12168      270.74792633        2.63689436
       13.22137      297.34399922        2.85358735
       13.32107      319.38076257        3.05280509
       13.42076      343.52101790        3.04806858
       13.52045      366.60857507        3.18750591
       13.62015      364.20207212        3.07826873
       13.71984      346.12458065        3.12655457
       13.81953      319.54556178        3.05440198
       13.91923      286.26283657        2.71525219
       14.01892      218.64870412        2.30840885
       14.11861      169.83510563        2.12195381
       14.21831      133.19057430        1.88042507
       14.31800      109.19115477        1.79215280
       14.41769       83.75472336        1.51099820
       14.51739       70.91219851        1.35623376
       14.61708       60.53335218        1.25597396
       14.71677       54.80280753        1.21441488
       14.81647       50.28545670        1.21848663
       14.91616       49.72764877        1.11430593
       15.01585       50.71183433        1.14561181
       15.11555       47.36455912        1.11985954
       15.21524       47.93495930        1.16113956
       15.31493       49.56861055        1.20930343
       15.41463       48.37015780        1.15659030
       15.51432       49.71690588        1.13630270
       15.61402       45.54255909        1.11492923
       15.71371       48.80809210        1.14641273
       15.81340       46.39046108        1.16259405
       15.91310       48.30969235        1.15285036
       16.01279       46.78442552        1.08621912
       16.11248       44.70551125        1.09024518
       16.21218       48.56545290        1.16798665
       16.31187       45.49980609        1.13316379
       16.41156       48.23558588        1.14511858
       16.51126       49.40667291        1.17858044
       16.61095       49.85174684        1.14154590
       16.71064       49.58825415        1.17450981
       16.81034       50.52165052        1.18913882
       16.91003       53.45541719        1.18802486
       17.00972       55.97794071        1.16720011
       17.10942       58.34617120        1.25958522
       17.20911       61.21432566        1.30168186
       17.30880       65.10894506        1.35426828
       17.40850       68.34976135        1.38736444
       17.50819       73.52619591        1.39744711
       17.60788       73.21105145        1.43771634
       17.70758       75.16223414        1.46285024
       17.80727       72.99467227        1.45929034
       17.90696       71.48639162        1.35016852
       18.00666       67.13426027        1.33120380
       18.10635       61.33841189        1.23743868
       18.20604       62.26611229        1.36778818
       18.30574       58.57333671        1.26419199
       18.40543       56.05049816        1.20596721
       18.50512       52.81484774        1.20745148
       18.60482       51.62635643        1.17501677
       18.70451       53.64413459        1.26583420
       18.80420       48.88853783        1.13503889
       18.90390       48.77883109        1.12165726
       19.00359       48.52872314        1.08952357
       19.10328       49.86995095        1.16857902
       19.20298       46.34969042        1.16149120
       19.30267       46.69455945        1.11955904
       19.40237       46.34659292        1.10274268
       19.50206       46.38954948        1.13099320
       19.60175       46.39954114        1.11843207
       19.70145       45.02971796        1.15528289
       19.80114       44.71184813        1.09183003
       19.90083       44.04097156        1.04696340
       20.00053       45.68754820        1.08533933
       20.10022       46.51464906        1.10328513
       20.19991       46.40368393        1.17812220
       20.29961       49.37625442        1.15159631
       20.39930       47.32427657        1.16138755
       20.49899       51.36290933        1.18907822
       20.59869       48.57075577        1.17733260
       20.69838       50.75402163        1.24797869
       20.79807       51.65596144        1.20088989
       20.89777       53.39965478        1.19344078
       20.99746       56.31815630        1.23793339
       21.09715       56.43586659        1.30530597
       21.19685       58.13799699        1.31801767
       21.29654       57.00323416        1.27305851
       21.39623       57.01924662        1.27330475
       21.49593       55.12296824        1.23397642
       21.59562       51.50218752        1.22132736
       21.69531       50.84801019        1.26221924
       21.79501       51.15941124        1.15822214
       21.89470       47.96699953        1.09614406
       21.99439       46.42817701        1.12407972
       22.09409       44.83033412        1.10724235
       22.19378       42.31455287        1.14230968
       22.29347       47.68762683        1.12962492
       22.39317       45.48771474        1.13175467
       22.49286       46.59571255        1.14458455
       22.59255       48.96780080        1.18725276
       22.69225       48.42442239        1.24414367
       22.79194       50.13427811        1.13698096
       22.89163       53.37906772        1.15039087
       22.99133       60.09314457        1.25474193
       23.09102       63.54123196        1.34012936
       23.19072       67.08026324        1.38036355
       23.29041       68.23395765        1.37490500
       23.39010       70.42621443        1.41155922
       23.48980       68.72226917        1.39935710
       23.58949       67.32523225        1.40356532
       23.68918       62.74074676        1.42457146
       23.78888       58.24777686        1.22308155
       23.88857       51.78111386        1.16801626
       23.98826       49.58873958        1.16846424
       24.08796       45.81324005        1.10107377
       24.18765       47.03524247        1.19549129
       24.28734       42.58172888        1.08282911
       24.38704       44.15093606        1.12109084
       24.48673       43.62401395        1.11037509
       24.58642       44.67900915        1.16094638
       24.68612       43.77625852        1.14760311
       24.78581       44.67935969        1.06878585
       24.88550       44.83069218        1.07016359
       24.98520       44.86652730        1.11019393
       25.08489       46.18697706        1.14895693
       25.18458       47.58873333        1.19081931
       25.28428       46.46085941        1.13400898
       25.38397       46.61653126        1.13039563
       25.48366       52.15273560        1.20302312
       25.58336       53.57940206        1.27100529
       25.68305       59.10395224        1.30949135
       25.78274       69.87704384        1.34425967
       25.88244       83.92164753        1.51088275
       25.98213      106.96149458        1.72058762
       26.08182      126.12150877        1.91795339
       26.18152      151.03318083        2.15057480
       26.28121      174.91991930        2.19008124
       26.38090      190.51817728        2.30551521
       26.48060      196.18208284        2.40445566
       26.58029      186.17752915        2.44319459
       26.67998      174.02152841        2.23083360
       26.77968      148.42145663        2.03495231
       26.87937      113.66373633        1.75406240
       26.97907       96.07063699        1.59876817
       27.07876       82.03203729        1.59025913
       27.17845       76.51750887        1.46754994
       27.27815       75.36911909        1.42229949
       27.37784       81.94097804        1.54111255
       27.47753       85.95367589        1.55528008
       27.57723       83.62919292        1.60692339
       27.67692       85.12626515        1.58256964
       27.77661       78.17047424        1.44718996
       27.87631       69.62812828        1.34284155
       27.97600       62.15352001        1.29708010
       28.07569       56.30732805        1.30644857
       28.17539       51.67096825        1.19794429
       28.27508       51.02067171        1.19089611
       28.37477       49.36633832        1.19924374
       28.47447       49.89044378        1.19619923
       28.57416       52.50446470        1.32680468
       28.67385       53.70791006        1.19393307
       28.77355       54.42152748        1.18017435
       28.87324       55.10765865        1.21924298
       28.97293       59.36410111        1.26859262
       29.07263       57.55346955        1.36149027
       29.17232       55.30269543        1.21784534
       29.27201       55.01774990        1.23713882
       29.37171       55.72394868        1.28083795
       29.47140       52.45919465        1.22827522
       29.57109       46.95382141        1.23199379
       29.67079       46.97238044        1.12182041
       29.77048       44.74388072        1.09734050
       29.87017       48.22637322        1.11702076
       29.96987       45.23154565        1.13415918
       30.06956       46.87050596        1.19117137
       30.16925       46.78133792        1.12049014
       30.26895       45.57056929        1.11007243
       30.36864       49.41507051        1.17499835
       30.46833       49.82745792        1.19186236
       30.56803       54.70288954        1.31938088
       30.66772       55.50315077        1.23675407
       30.76742       60.22847945        1.26273054
       30.86711       62.00538284        1.30682039
       30.96680       64.11547019        1.33664169
       31.06650       61.78727752        1.37574521
       31.16619       61.96204750        1.29537170
       31.26588       59.11072193        1.25749750
       31.36558       56.92212148        1.25006780
       31.46527       56.71229110        1.29830296
       31.56496       59.73534801        1.35399471
       31.66466       63.34698054        1.30410842
       31.76435       70.86224716        1.37818911
       31.86404       78.60703184        1.43277597
       31.96374       86.49200046        1.53812548
       32.06343       86.44608901        1.59126616
       32.16312       85.82659485        1.49005961
       32.26282       84.75717271        1.51693347
       32.36251       79.18946767        1.52471820
       32.46220       74.77044325        1.50798546
       32.56190       68.89041686        1.47290284
       32.66159       69.45561193        1.40451968
       32.76128       66.41831738        1.34251989
       32.86098       64.46423567        1.34239784
       32.96067       61.54218786        1.32791879
       33.06036       62.44105139        1.36203215
       33.16006       57.19891907        1.22745472
       33.25975       57.80353507        1.27403899
       33.35944       55.91042726        1.25970917
       33.45914       57.63823296        1.32775589
       33.55883       57.53489612        1.32966341
       33.65852       60.49709862        1.27153217
       33.75822       65.82164927        1.32420540
       33.85791       71.76446671        1.38851296
       33.95760       83.72565155        1.54455307
       34.05730       89.68901586        1.58319534
       34.15699      104.96249286        1.68606039
       34.25668      126.20438526        1.84322589
       34.35638      146.71870104        2.03924719
       34.45607      189.43563213        2.44221425
       34.55577      233.11376556        2.58284121
       34.65546      292.38578877        2.77542843
       34.75515      367.61558963        3.17359268
       34.85485      425.28059196        3.38896151
       34.95454      442.08670860        3.56371628
       35.05423      433.00149460        3.64766531
       35.15393      390.77321800        3.25324343
       35.25362      321.06001468        2.99311366
       35.35331      253.11866057        2.72541475
       35.45301      191.68336365        2.47323141
       35.55270      145.12865204        2.09420174
       35.65239      107.77012025        1.74183197
       35.75209       88.83788889        1.56935861
       35.85178       76.02760358        1.44938937
       35.95147       71.62727047        1.43980580
       36.05117       69.20203706        1.38602818
       36.15086       65.54030926        1.29684354
       36.25055       62.33066869        1.32118168
       36.35025       62.94814442        1.35375853
       36.44994       60.34986249        1.35190916
       36.54963       58.27793331        1.27521665
       36.64933       58.90545719        1.26296335
       36.74902       55.09250457        1.23400265
       36.84871       54.82850026        1.22215046
       36.94841       54.24447957        1.31459775
       37.04810       49.93162786        1.11194063
       37.14779       49.73338771        1.13247913
       37.24749       49.84457320        1.16528662
       37.34718       49.46328283        1.19041692
       37.44687       48.73001163        1.26919682
       37.54657       47.87018527        1.14839086
       37.64626       47.33572998        1.13756212
       37.74595       45.94103408        1.10310185
       37.84565       45.90006626        1.16665921
       37.94534       47.58554991        1.21022697
       38.04503       46.88148075        1.08568529
       38.14473       45.90665681        1.08482954
       38.24442       50.32254848        1.15674632
       38.34412       46.62305438        1.16390862
       38.44381       48.35335697        1.28174388
       38.54350       46.38626528        1.11900203
       38.64320       50.26693153        1.16149759
       38.74289       51.01659632        1.18546178
       38.84258       52.96439376        1.21088374
       38.94228       54.90863681        1.29324578
       39.04197       57.30064104        1.19135227
       39.14166       63.53442709        1.30524788
       39.24136       67.89670934        1.34585833
       39.34105       72.23022860        1.43675086
       39.44074       72.87714305        1.57418878
       39.54044       71.09103094        1.39009228
       39.64013       70.50150001        1.38006803
       39.73982       67.75429457        1.35827725
       39.83952       61.54615147        1.28554236
       39.93921       60.63942106        1.35297694
       40.03890       58.51121785        1.21645444
       40.13860       55.13550955        1.17917931
       40.23829       57.81389259        1.25031736
       40.33798       57.42227101        1.28490140
       40.43768       53.93317272        1.30271390
       40.53737       57.98336585        1.25384215
       40.63706       57.42881879        1.27400660
       40.73676       58.43118774        1.28308092
       40.83645       57.64093050        1.28497686
       40.93614       61.13442896        1.34567683
       41.03584       66.31460903        1.31915744
       41.13553       74.46770197        1.39976157
       41.23522       90.57063603        1.58179527
       41.33492      114.58778894        1.86348776
       41.43461      136.69351610        2.10132822
       41.53430      164.83728553        2.16209379
       41.63400      193.05218150        2.39208464
       41.73369      209.37311540        2.43726485
       41.83338      213.97036360        2.52972379
       41.93308      218.93461417        2.53646615
       42.03277      222.51070083        2.33726997
       42.13247      252.60740189        2.61900753
       42.23216      297.47822193        2.84880726
       42.33185      355.26341774        3.34340935
       42.43155      421.25170182        3.58894395
       42.53124      477.14977259        3.69883178
       42.63093      519.60237097        3.86758970
       42.73063      540.19749551        3.96185483
       42.83032      524.22031584        3.97126382
       42.93001      495.78962308        3.71723976
       43.02971      426.02233254        3.25372927
       43.12940      341.27887020        2.96937222
       43.22909      270.05592929        2.77510028
       43.32879      202.23750748        2.52775783
       43.42848      151.08194540        2.13526661
       43.52817      116.40164934        1.79237725
       43.62787       92.29827160        1.59008489
       43.72756       74.66011768        1.46336415
       43.82725       67.20694450        1.44952829
       43.92695       62.50826051        1.26753378
       44.02664       57.89695074        1.21389058
       44.12633       57.13477071        1.25080430
       44.22603       57.63049849        1.30757807
       44.32572       53.42910086        1.32675627
       44.42541       52.99314095        1.26152556
       44.52511       54.48603301        1.24483073
       44.62480       55.28924405        1.27173461
       44.72449       58.50461935        1.26788076
       44.82419       61.07492783        1.45372167
       44.92388       67.13322147        1.27134584
       45.02357       74.48642026        1.35035376
       45.12327       87.93679359        1.51170469
       45.22296      108.10380839        1.72098889
       45.32265      127.67592564        2.06956828
       45.42235      151.84210348        2.05582012
       45.52204      176.78538188        2.19666607
       45.62174      205.58067680        2.41295839
       45.72143      221.29222301        2.50364833
       45.82112      229.77093384        2.79294801
       45.92082      232.20094404        2.38367525
       46.02051      229.47454907        2.42010523
       46.12020      219.36556153        2.37343389
       46.21990      215.77442048        2.47390770
       46.31959      197.68880369        2.55632042
       46.41928      185.27439031        2.28567503
       46.51898      156.86753622        2.11376232
       46.61867      133.72761656        1.94107012
       46.71836      101.61963158        1.73416665
       46.81806       84.50131427        1.63910401
       46.91775       73.51158823        1.33226479
       47.01744       66.53278397        1.29742251
       47.11714       64.23388190        1.30381910
       47.21683       66.84939914        1.36932827
       47.31652       78.04424116        1.61461022
       47.41622       86.58255671        1.60289444
       47.51591      102.16186001        1.74488757
       47.61560      115.20305652        1.83769175
       47.71530      134.29281022        2.00621538
       47.81499      141.59866991        2.11181206
       47.91468      156.45306424        1.94236990
       48.01438      168.20738196        2.01533936
       48.11407      174.72346847        2.13114656
       48.21376      173.61113443        2.21789921
       48.31346      167.98231121        2.25914458
       48.41315      156.86741664        2.03453699
       48.51284      141.17911608        1.99383313
       48.61254      126.18416359        1.87694589
       48.71223      106.16743335        1.75220290
       48.81192       88.90005174        1.59900885
       48.91162       76.60945243        1.33033088
       49.01131       64.24195400        1.26054118
       49.11100       58.84450983        1.24972842
       49.21070       52.97022514        1.24462619
       49.31039       52.58974254        1.27633277
       49.41009       51.07012746        1.18812853
       49.50978       50.56096964        1.20663233
       49.60947       48.34372817        1.18842289
       49.70917       48.92273307        1.23987352
       49.80886       48.66173376        1.20346984
       49.90855       48.59821018        1.09556552
       50.00825       48.67376581        1.11957795
       50.10794       50.66381279        1.16831315
       50.20763       49.90579099        1.21141883
       50.30733       51.92420085        1.29444517
       50.40702       52.82960110        1.22446363
       50.50671       52.94165261        1.22936600
       50.60641       55.66528676        1.26249894
       50.70610       55.05289626        1.29187151
       50.80579       57.59737566        1.30406795
       50.90549       58.01895465        1.18004014
       51.00518       54.34800786        1.15207571
       51.10487       57.69370466        1.22714402
       51.20457       56.06867867        1.28780147
       51.30426       54.93449483        1.26802840
       51.40395       59.55293929        1.26589730
       51.50365       58.07500742        1.26430239
       51.60334       59.41220849        1.30409112
       51.70303       59.14297393        1.38171715
       51.80273       59.50882509        1.27133828
       51.90242       62.81886659        1.22055378
       52.00211       63.44659683        1.23246486
       52.10181       62.90643807        1.26602463
       52.20150       63.65919133        1.40259273
       52.30119       62.95365840        1.34357479
       52.40089       61.32409611        1.30523224
       52.50058       61.38023674        1.33050152
       52.60027       60.04247320        1.33383351
       52.69997       60.91571053        1.47239851
       52.79966       60.25670692        1.23114856
       52.89935       67.34685683        1.25616931
       52.99905       76.04462362        1.35698574
       53.09874       86.04266520        1.49034014
       53.19844       98.70736317        1.82848012
       53.29813      113.90459475        1.74616638
       53.39782      125.49610354        1.89646108
       53.49752      134.98735970        1.97609379
       53.59721      139.86601766        2.00999078
       53.69690      143.78313673        2.23623134
       53.79660      151.07017376        1.92052284
       53.89629      150.14406642        1.89391864
       53.99598      146.64025270        1.91732206
       54.09568      133.09555185        1.90682142
       54.19537      125.92886250        2.02261151
       54.29506      111.15044950        1.74505791
       54.39476      104.10607029        1.70173695
       54.49445       96.43203392        1.63869219
       54.59414       91.16721673        1.61739007
       54.69384       90.61991648        1.72026589
       54.79353       87.60378070        1.45030685
       54.89322       84.63830352        1.42029574
       54.99292       79.94138807        1.42054336
       55.09261       79.31806032        1.47152177
       55.19230       70.68808123        1.49139890
       55.29200       66.51488655        1.34635299
       55.39169       61.42643772        1.33480207
       55.49138       57.74673261        1.28926055
       55.59108       57.01597920        1.32214176
       55.69077       53.97329345        1.32003463
       55.79046       56.48736202        1.18075822
       55.89016       55.56110005        1.16820151
       55.98985       57.68508436        1.19804066
       56.08954       59.98260874        1.26202245
       56.18924       65.16141410        1.41979637
       56.28893       73.30924982        1.37861166
       56.38862       85.00569269        1.53606707
       56.48832       94.88441453        1.65116033
       56.58801      102.89296688        1.76943000
       56.68770      110.47357304        1.89264672
       56.78740      111.36146550        1.62626479
       56.88709      114.77232698        1.66766466
       56.98679      104.50125942        1.59224060
       57.08648       96.94442134        1.62543816
       57.18617       85.21530067        1.57746768
       57.28587       74.24958553        1.37539088
       57.38556       66.23435459        1.38257125
       57.48525       60.28725134        1.34418497
       57.58495       56.44543900        1.33032840
       57.68464       55.28155663        1.32799461
       57.78433       54.33242400        1.15168423
       57.88403       49.74588174        1.11466982
       57.98372       50.40707122        1.13994687
       58.08341       50.79008694        1.23723770
       58.18311       52.02288731        1.28093629
       58.28280       52.62094012        1.21344040
       58.38249       51.58754145        1.25537350
       58.48219       52.60087288        1.29506214
       58.58188       53.66361549        1.32243450
       58.68157       51.17941844        1.26541301
       58.78127       53.20361838        1.12861697
       58.88096       53.36613912        1.11366789
       58.98065       55.31633634        1.17708751
       59.08035       57.84300374        1.28449015
       59.18004       56.80760303        1.29122926
       59.27973       59.50809907        1.24698795
       59.37943       62.44574875        1.31962576
       59.47912       66.80654915        1.42106510
       59.57881       71.28962375        1.53802768
       59.67851       77.18709486        1.49230013
       59.77820       81.54673446        1.41018639
       59.87789       94.49984927        1.51322937
       59.97759       98.28383240        1.61442065
       60.07728      103.71659209        1.79619135
       60.17697      106.40695296        1.73326656
       60.27667      111.17491475        1.72275811
       60.37636      109.90244618        1.74601843
       60.47605      106.05846228        1.78915626
       60.57575      100.27627267        1.90630257
       60.67544       94.35606269        1.58843434
       60.77514       85.94249630        1.44086974
       60.87483       80.65152075        1.36857683
       60.97452       71.33644736        1.35559756
       61.07422       68.27231679        1.48966404
       61.17391       65.86292740        1.26732550
       61.27360       67.40654368        1.32769004
       61.37330       66.45490851        1.36713017
       61.47299       68.38528159        1.44789148
       61.57268       67.12862881        1.63123947
       61.67238       69.47730615        1.35266598
       61.77207       71.22350588        1.33393160
       61.87176       69.47223067        1.30267139
       61.97146       71.20576050        1.36930459
       62.07115       70.41228561        1.54212164
       62.17084       66.40658677        1.31191111
       62.27054       70.32168794        1.40785073
       62.37023       67.90534179        1.43844270
       62.46992       64.59536444        1.45086267
       62.56962       66.75980350        1.65673759
       62.66931       69.49644467        1.36186532
       62.76900       77.17175007        1.39911953
       62.86870       85.75339040        1.44305809
       62.96839       93.95929512        1.55907612
       63.06808       97.47600661        1.76730973
       63.16778      101.94376071        1.60450668
       63.26747      111.67420312        1.73830332
       63.36716      110.06049763        1.79067514
       63.46686      115.27351011        1.88779603
       63.56655      120.84877260        2.05376110
       63.66624      131.18824278        1.81926023
       63.76594      142.79432799        1.84423040
       63.86563      161.38721225        1.95560112
       63.96532      173.98023048        2.12543344
       64.06502      175.89261400        2.28954324
       64.16471      174.93247540        2.11195962
       64.26440      166.48804623        2.14445243
       64.36410      157.16176769        2.12525527
       64.46379      138.42184970        2.10832933
       64.56349      123.95950184        2.02994663
       64.66318      104.30881034        1.62898862
       64.76287       85.36215534        1.45472984
       64.86257       72.21421800        1.33551381
       64.96226       63.61710487        1.31268536
       65.06195       59.27165709        1.36992335
       65.16165       55.71196750        1.19796561
       65.26134       55.14810065        1.21977199
       65.36103       53.61066227        1.25487191
       65.46073       55.82601777        1.32271307
       65.56042       55.84353061        1.38171031
       65.66011       55.31469339        1.19905251
       65.75981       55.09307599        1.18466692
       65.85950       59.68348336        1.22535681
       65.95919       63.88950729        1.32730332
       66.05889       64.20133332        1.37623638
       66.15858       71.20225130        1.37849320
       66.25827       77.76907918        1.49014663
       66.35797       86.37119312        1.63624930
       66.45766       95.18021258        1.82537019
       66.55735      104.47818757        1.91224033
       66.65705      126.73383169        1.86926491
       66.75674      140.48056643        1.91829327
       66.85643      153.17573538        1.98082379
       66.95613      160.46780762        2.10826854
       67.05582      168.41647112        2.17652211
       67.15551      169.03669277        2.07506543
       67.25521      163.95594360        2.14485402
       67.35490      158.15609532        2.21760191
       67.45459      136.40553402        2.17083033
       67.55429      126.42965208        2.00218999
       67.65398      106.24849347        1.64448923
       67.75367       90.40689734        1.50400335
       67.85337       80.39232148        1.43537001
       67.95306       76.77743674        1.49982304
       68.05275       76.07339662        1.41360785
       68.15245       80.78066111        1.44431824
       68.25214       86.62497330        1.58765846
       68.35184       91.63952824        1.70197532
       68.45153       95.50259034        1.91280135
       68.55122      106.28714639        1.73885337
       68.65092      115.47235706        1.68968846
       68.75061      123.67317407        1.76705918
       68.85030      128.38237799        1.83528724
       68.95000      125.03849540        2.05327570
       69.04969      123.00320293        1.71981817
       69.14938      116.22540357        1.71883835
       69.24908      102.41124823        1.72248044
       69.34877       96.62035645        1.73029149
       69.44846       87.79051111        1.91271935
       69.54816       77.21535737        1.39822690
       69.64785       68.79729177        1.30096754
       69.74754       58.47882064        1.21113885
       69.84724       54.34579079        1.19786550
       69.94693       51.94140360        1.32152898
       70.04662       49.47377048        1.06053647
       70.14632       47.90998648        1.08518594
       70.24601       46.55459898        1.14533571
       70.34570       45.74509805        1.20136757
       70.44540       49.23174562        1.46862848
       70.54509       49.88793208        1.15720766
       70.64478       49.71806318        1.15358597
       70.74448       49.39932894        1.16809504
       70.84417       48.91471007        1.20613231
       70.94386       51.81292573        1.36279327
       71.04356       50.63738761        1.11479545
       71.14325       52.33936949        1.17784810
       71.24294       53.29958921        1.25064464
       71.34264       52.74908892        1.31922168
       71.44233       54.43510057        1.49553905
       71.54202       54.17396505        1.21462077
       71.64172       52.92434730        1.16776092
       71.74141       52.62946836        1.14335976
       71.84110       50.65117235        1.16101898
       71.94080       51.59571360        1.27693256
       72.04049       52.89337125        1.09435413
       72.14019       50.10421838        1.10963376
       72.23988       49.74920427        1.15688719
       72.33957       49.54772991        1.28962179
       72.43927       53.79298891        1.47940308
       72.53896       51.53884885        1.16095121
       72.63865       51.57984095        1.13522995
       72.73835       54.46073243        1.14096270
       72.83804       57.47731707        1.23786364
       72.93773       58.87115022        1.33079576
       73.03743       59.02162708        1.15662556
       73.13712       60.53726670        1.23537651
       73.23681       61.56796948        1.30892407
       73.33651       63.80602973        1.46633729
       73.43620       63.26160025        1.58143064
       73.53589       63.14318283        1.27452345
       73.63559       65.44689898        1.27729277
       73.73528       62.67812132        1.24418191
       73.83497       66.13678112        1.35510690
       73.93467       63.24205079        1.39521253
       74.03436       64.97300794        1.25161882
       74.13405       64.53301802        1.30038635
       74.23375       62.56869708        1.33367230
       74.33344       62.95029265        1.47268019
       74.43313       64.19481956        1.54324269
       74.53283       67.01669483        1.33984096
       74.63252       69.80432792        1.35764443
       74.73221       72.12264555        1.37336214
       74.83191       74.16833440        1.47746359
       74.93160       78.70627346        1.53936162
       75.03129       80.72628353        1.38604893
       75.13099       84.85503449        1.47208099
       75.23068       88.72618047        1.57025249
       75.33037       93.90599140        1.77591914
       75.43007       99.38832906        1.85362473
       75.52976      107.70766576        1.67640836
       75.62945      117.57024456        1.75038367
       75.72915      121.79334124        1.77458694
       75.82884      127.83038304        1.95769453
       75.92854      136.09107898        1.89668128
       76.02823      144.84907554        1.83564069
       76.12792      149.67616429        1.95058489
       76.22762      154.71407090        2.09265985
       76.32731      148.80501217        2.31735917
       76.42700      155.26830609        2.23467327
       76.52670      149.11200785        2.01990127
       76.62639      139.52893580        1.92864351
       76.72608      131.09244940        1.83796427
       76.82578      128.98220938        2.10064349
       76.92547      127.92152892        1.67560877
       77.02516      123.05725564        1.70307137
       77.12486      121.36125388        1.77655583
       77.22455      124.19859295        1.91376769
       77.32424      128.06706743        2.38771437
       77.42394      130.98776091        1.92829284
       77.52363      134.18681540        1.88615544
       77.62332      135.99817545        1.89021972
       77.72302      140.23091927        1.92397249
       77.82271      141.64743917        2.26776933
       77.92240      144.28000261        1.75272887
       78.02210      144.47494179        1.89255287
       78.12179      143.35247130        2.01342436
       78.22148      136.17602270        2.07468174
       78.32118      135.70989302        2.40327777
       78.42087      125.47353117        1.81811660
       78.52056      123.17122464        1.86016295
       78.62026      115.88383870        1.78978023
       78.71995      112.12179764        1.76626076
       78.81964      106.72637531        1.92456858
       78.91934       96.26660153        1.41587075
       79.01903       84.70016975        1.45554025
       79.11872       77.57634257        1.44938987
       79.21842       70.41088425        1.47269447
       79.31811       71.46430987        1.67131489
       79.41780       67.53011663        1.31775432
       79.51750       67.62583948        1.33993598
       79.61719       67.37391677        1.34136173
       79.71689       64.28629868        1.36021770
       79.81658       67.17992175        1.47413646
       79.91627       63.39834707        1.21371373
       80.01597       63.12977183        1.24486402
       80.11566       63.55704314        1.30575079
       80.21535       66.36598601        1.42643684
       80.31505       67.05938611        1.70456737
       80.41474       65.63023971        1.29571856
       80.51443       67.02078117        1.30370057
       80.61413       73.37285396        1.40962688
       80.71382       78.06105764        1.50430038
       80.81351       84.76098886        1.76177206
       80.91321       92.19621141        1.35523611
       81.01290      108.48672716        1.58771133
       81.11259      127.54448843        1.85900050
       81.21229      145.84528015        2.15107649
       81.31198      154.64103514        2.47103428
       81.41167      172.71554573        2.04536482
       81.51137      201.45084564        2.27395258
       81.61106      209.00039240        2.41841640
       81.71075      227.37839199        2.61176238
       81.81045      236.56175871        2.82261157
       81.91014      256.39996965        2.26046200
       82.00983      273.31363621        2.49533015
       82.10953      285.41387282        2.85329688
       82.20922      289.64187916        3.19676907
       82.30891      291.68220653        3.36380860
       82.40861      289.97529530        2.72719067
       82.50830      286.55415867        2.70372657
       82.60799      286.58676843        2.91266061
       82.70769      288.70550863        3.18169640
       82.80738      282.17317336        3.00474774
       82.90707      279.08630101        2.42645300
       83.00677      272.56394046        2.55479160
       83.10646      260.67298317        2.93908386
       83.20615      250.26424522        3.20492651
       83.30585      250.67797608        3.03935397
       83.40554      220.67422334        2.36908056
       83.50524      209.29120027        2.25110046
       83.60493      187.76130100        2.34791027
       83.70462      180.09020324        2.59288411
       83.80432      165.06420865        2.16876841
       83.90401      136.81031235        1.65515377
       84.00370      118.11843200        1.60345908
       84.10340       99.51788632        1.75795129
       84.20309       90.75283052        2.03764128
       84.30278       84.94320886        1.60304003
       84.40248       78.71558874        1.36172117
       84.50217       71.53648339        1.27324339
       84.60186       66.99740861        1.39308608
       84.70156       68.65573902        1.84550855
       84.80125       65.78452069        1.25759504
       84.90094       65.92947238        1.13097000
       85.00064       64.07183275        1.14862844
       85.10033       63.19251529        1.34997138
       85.20002       67.52585623        2.39377132
       85.29972       66.76633648        1.25557421
       85.39941       65.78066061        1.27058758
       85.49910       68.18300347        1.25807985
       85.59880       66.33347902        1.39525601
       85.69849       66.08989728        2.50034325
       85.79818       65.77964653        1.17603985
       85.89788       65.53038511        1.14575351
       85.99757       64.05550027        1.16388058
       86.09726       63.40259896        1.32944855
       86.19696       59.28041123        2.46864887
       86.29665       61.16283480        1.18671610
       86.39634       61.42287268        1.20988637
       86.49604       60.34353749        1.18102838
       86.59573       57.42140950        1.22739738
       86.69542       56.44305746        2.54419581
       86.79512       53.56302618        1.02871757
       86.89481       53.85508784        1.01699301
       86.99451       54.94035006        1.06476613
       87.09420       51.61526746        1.15087336
       87.19389       50.69385528        2.70163525
       87.29359       54.34557167        1.13379544
       87.39328       50.85848197        1.11149970
       87.49297       48.27323961        1.05113527
       87.59267       49.51406278        1.08553995
       87.69236       48.48719129        3.21427840
       87.79205       50.63926297        1.02334392
       87.89175       50.01606235        1.00881738
       87.99144       49.11104518        1.04161463
       88.09113       49.53588872        1.11190620
       88.19083       48.19010882        5.80315676
       88.29052       48.83777354        1.11097304
       88.39021       49.27797031        1.12342461
       88.48991       48.30046935        1.06738599
       88.58960       49.98910466        1.05164742
       88.68929       39.46544498        7.23594118
       88.78899       47.51237386        0.98953443
       88.88868       52.45518122        1.01720153
       88.98837       52.34633675        1.05688140
       89.08807       48.77581571        1.04483347
       89.18776       52.91493436        8.85600493
       89.28745       51.54257949        1.09136096
       89.38715       51.75868370        1.10488817
       89.48684       53.29568730        1.09724281
       89.58653       56.52803210        1.10719314
       89.68623       54.60116894        8.82089079
       89.78592       59.08363937        1.09998248
       89.88561       60.65853076        1.09272403
       89.98531       63.77685363        1.14903196
       90.08500       68.30067697        1.23343112
       90.18469       61.45263012        9.75527263
       90.28439       72.14333670        1.29481458
       90.38408       77.85461987        1.36791340
       90.48377       86.11472411        1.41201039
       90.58347       88.09560980        1.40577098
       90.68316      104.36467960       11.92533420
       90.78286       91.39147967        1.37073122
       90.88255       94.43650489        1.35594431
       90.98224       97.73503365        1.42735285
       91.08194       99.37225460        1.48656269
       91.18163      109.45591193       12.45404766
       91.28132      100.56725235        1.53980012
       91.38102       99.04642179        1.56858333
       91.48071       99.27092931        1.53183950
       91.58040       94.14733153        1.44248852
       91.68010       85.78156602       10.41372177
       91.77979       87.49773062        1.33463280
       91.87948       84.35661689        1.29008316
       91.97918       81.02078062        1.31272602
       92.07887       78.83613595        1.34878158
       92.17856       79.34101654       10.28828320
       92.27826       79.47068865        1.39864437
       92.37795       74.60597769        1.38707093
       92.47764       77.53550454        1.34248846
       92.57734       78.70963347        1.31222969
       92.67703       88.83247815        9.05242337
       92.77672       83.58906401        1.30355853
       92.87642       82.55149961        1.27065796
       92.97611       85.61803791        1.35138376
       93.07580       89.73282380        1.57921302
       93.17550       89.78290362        2.97037701
       93.27519       92.54126934        1.47834438
       93.37488       94.17234786        1.44974713
       93.47458       99.38411139        1.50597322
       93.57427       95.96202252        1.71064921
       93.67396       97.05845820        2.32505562
       93.77366       96.06388460        1.43288225
       93.87335       97.22072328        1.37695510
       93.97304       94.31596324        1.41322145
       94.07274       89.58861815        1.78791295
       94.17243       88.03602078        2.02217962
       94.27212       92.50796104        1.54417416
       94.37182       90.36288394        1.48728765
       94.47151       90.28892774        1.42375483
       94.57121       88.19409730        1.85695878
       94.67090       84.95870561        1.84347792
       94.77059       86.65594058        1.44739791
       94.87029       79.87102222        1.26329936
       94.96998       73.04297325        1.22311074
       95.06967       67.31538030        1.35330594
       95.16937       68.47990235        1.86857882
       95.26906       65.12314932        1.40753669
       95.36875       65.97106324        1.28552388
       95.46845       61.20800967        1.18981279
       95.56814       60.99275908        1.36669075
       95.66783       56.25106234        1.47427887
       95.76753       58.26797515        1.24002970
       95.86722       54.96700259        1.02435963
       95.96691       52.11211654        1.03445502
       96.06661       53.29948383        1.34022614
       96.16630       53.13196917        1.42695842
       96.26599       52.34377016        1.27192538
       96.36569       51.19262456        1.12860741
       96.46538       48.77325607        1.06306593
       96.56507       48.74580512        1.31173037
       96.66477       47.48622692        1.26150942
       96.76446       46.43933185        1.11477123
       96.86415       46.73799037        0.96871856
       96.96385       46.72858741        1.00043390
       97.06354       48.09339441        1.37247081
       97.16323       48.74100731        1.32113531
       97.26293       49.50681735        1.25095270
       97.36262       48.10122075        1.14180218
       97.46231       49.86352207        1.06957379
       97.56201       49.05970534        1.34970678
       97.66170       50.53519014        1.23044796
       97.76139       50.08156149        1.11280109
       97.86109       53.44927150        1.03965443
       97.96078       56.45269766        1.09192056
       98.06047       57.70523334        1.53345763
       98.16017       55.92801793        1.34194710
       98.25986       56.19183593        1.28482967
       98.35956       57.74794991        1.22974286
       98.45925       62.41258007        1.19349148
       98.55894       63.64332376        1.57220097
       98.65864       67.67139374        1.39119882
       98.75833       66.32617121        1.28684145
       98.85802       70.18087993        1.23613412
       98.95772       69.83790077        1.22486394
       99.05741       72.44752676        1.73204789
       99.15710       73.68934771        1.50233327
       99.25680       73.17417305        1.45035014
       99.35649       78.30283103        1.42919204
       99.45618       82.53040106        1.36756084
       99.55588       86.53323773        1.87136335
       99.65557       82.37126634        1.50604722
       99.75526       86.10899024        1.44342903
       99.85496       86.54338892        1.37730520
       99.95465       83.23422444        1.32406141
      100.05434       87.30699931        1.93210338
      100.15404       87.85692477        1.63254673
      100.25373       86.02877446        1.59602291
      100.35342       84.13752964        1.57210866
      100.45312       86.13021544        1.45154119
      100.55281       85.38682179        1.89817272
      100.65250       82.84578683        1.52304766
      100.75220       83.25205333        1.41424761
      100.85189       79.72786629        1.32224249
      100.95158       78.41897006        1.27624881
      101.05128       79.10707417        1.82755820
      101.15097       77.41639371        1.49411991
      101.25066       78.83084735        1.48970642
      101.35036       79.92604416        1.51308070
      101.45005       76.77999200        1.39440805
      101.54974       72.24414424        1.68443187
      101.64944       73.51812775        1.38641302
      101.74913       72.90004109        1.30076949
      101.84882       74.52362300        1.28029036
      101.94852       78.23334814        1.38195319
      102.04821       78.14804022        1.66360708
      102.14791       79.64118791        1.51362658
      102.24760       77.17773070        1.47732199
      102.34729       78.83364625        1.48707958
      102.44699       79.39885388        1.51837841
      102.54668       78.95071002        1.58873715
      102.64637       78.78129701        1.41740536
      102.74607       83.82165165        1.39265093
      102.84576       83.10005213        1.36027859
      102.94545       87.65800663        1.59146542
      103.04515       83.19156129        1.64102635
      103.14484       84.72902931        1.54740624
      103.24453       88.37178893        1.55613795
      103.34423       83.34176588        1.49870476
      103.44392       86.84050873        1.65737052
      103.54361       86.81871051        1.60984468
      103.64331       85.89291034        1.45750583
      103.74300       85.30521821        1.38547148
      103.84269       86.97769479        1.37485063
      103.94239       82.42582990        1.60811470
      104.04208       84.37024311        1.57410038
      104.14177       81.98557891        1.50953477
      104.24147       82.79916790        1.51627801
      104.34116       83.26669282        1.53001814
      104.44085       83.25912166        1.73764973
      104.54055       79.18022830        1.53401105
      104.64024       81.59458066        1.46390497
      104.73993       77.71466313        1.36314801
      104.83963       76.05134625        1.29910032
      104.93932       73.47994998        1.54789955
      105.03901       71.71965820        1.44083989
      105.13871       72.61242010        1.39600596
      105.23840       70.36488841        1.37333365
      105.33809       68.10157601        1.35893367
      105.43779       67.50831224        1.57423943
      105.53748       67.11473913        1.40762193
      105.63717       66.92090943        1.28837740
      105.73687       62.43764537        1.18415860
      105.83656       63.71958738        1.16570867
      105.93626       57.25972624        1.40004357
      106.03595       58.63566889        1.28411472
      106.13564       59.06659456        1.24568945
      106.23534       58.52322905        1.25519149
      106.33503       54.89642133        1.22780064
      106.43472       57.32552937        1.48343446
      106.53442       52.64146861        1.23625641
      106.63411       54.63728693        1.14418771
      106.73380       53.56120900        1.07968560
      106.83350       55.39762429        1.08171535
      106.93319       57.93301186        1.43410401
      107.03288       56.97856906        1.26046949
      107.13258       57.91755477        1.23354102
      107.23227       59.23954785        1.26570415
      107.33196       58.60191286        1.25539046
      107.43166       57.65604998        1.49613332
      107.53135       57.73377547        1.29173531
      107.63104       56.52296406        1.16375572
      107.73074       62.82629707        1.17739172
      107.83043       60.20358686        1.13788050
      107.93012       62.80268510        1.53755506
      108.02982       62.80345317        1.34576761
      108.12951       63.62480501        1.28814834
      108.22920       63.83752004        1.26961999
      108.32890       62.94141180        1.24861888
      108.42859       67.15119366        1.63707113
      108.52828       66.15877812        1.37829535
      108.62798       64.32354554        1.23224195
      108.72767       65.23977948        1.19117994
      108.82736       66.86383093        1.23255653
      108.92706       63.58909454        1.52214230
      109.02675       64.99395508        1.34631505
      109.12644       66.85240683        1.33276327
      109.22614       65.88183125        1.32404922
      109.32583       66.23531392        1.44668533
      109.42552       64.89889879        1.51043820
      109.52522       66.77851858        1.38239618
      109.62491       65.77171100        1.30489603
      109.72461       61.73513212        1.20849442
      109.82430       62.64594620        1.13722654
      109.92399       59.87328612        1.44537381
      110.02369       61.69110423        1.28487751
      110.12338       61.96397832        1.27933780
      110.22307       59.96426946        1.24901856
      110.32277       60.00308317        1.27586512
      110.42246       58.93308333        1.53735446
      110.52215       58.07883511        1.29257404
      110.62185       56.43547684        1.20076874
      110.72154       53.12063045        1.08673485
      110.82123       57.41352376        1.16698432
      110.92093       53.88039699        1.31837640
      111.02062       58.31222217        1.26728686
      111.12031       54.77673551        1.23728537
      111.22001       54.81304428        1.21451081
      111.31970       56.66220081        1.34021576
      111.41939       56.86554353        1.38930874
      111.51909       60.79003056        1.30358250
      111.61878       59.58721978        1.21573649
      111.71847       61.16565923        1.14605053
      111.81817       63.91292147        1.27161659
      111.91786       67.59969941        1.37645311
      112.01755       66.88498359        1.33687050
      112.11725       69.67866882        1.37497404
      112.21694       72.68392174        1.39815345
      112.31663       71.04444526        1.52313266
      112.41633       75.81446956        1.54598361
      112.51602       78.80037801        1.45157606
      112.61571       81.26534765        1.40630432
      112.71541       81.83307582        1.32993191
      112.81510       84.03008578        1.51121753
      112.91479       87.25148447        1.56881287
      113.01449       88.58334403        1.54801508
      113.11418       88.97067059        1.54623146
      113.21387       86.87694685        1.52086716
      113.31357       89.61580395        1.71562288
      113.41326       89.73233625        1.63150389
      113.51296       89.79879429        1.53524652
      113.61265       92.50524374        1.50365939
      113.71234       94.13322514        1.44891998
      113.81204       91.75315856        1.63868035
      113.91173       90.59478706        1.57779286
      114.01142       88.08736656        1.53999884
      114.11112       89.72333168        1.55349852
      114.21081       90.61279862        1.57252098
      114.31050       88.23655377        1.75961619
      114.41020       90.13986559        1.64353561
      114.50989       90.39391209        1.54079896
      114.60958       86.30050797        1.45669420
      114.70928       87.54096858        1.41507324
      114.80897       83.64343578        1.56860439
      114.90866       85.12470846        1.49263196
      115.00836       85.16082218        1.48597226
      115.10805       86.47880075        1.50565263
      115.20774       87.87369515        1.54079071
      115.30744       88.35989421        1.77402727
      115.40713       90.46913267        1.62602745
      115.50682       91.29746583        1.54215187
      115.60652       89.02191062        1.46752573
      115.70621       89.25679230        1.41226892
      115.80590       92.16347780        1.67430827
      115.90560       96.40308714        1.55227953
      116.00529       96.45964905        1.57006281
      116.10498       94.99003428        1.57425492
      116.20468      101.62531664        1.66608226
      116.30437      102.12803040        1.99101355
      116.40406       99.05205478        1.70759078
      116.50376      100.08416943        1.62210830
      116.60345      103.55629989        1.58407253
      116.70314      108.69597322        1.57395644
      116.80284      113.09813966        1.90795215
      116.90253      114.01011867        1.72326015
      117.00222      119.26024454        1.74887227
      117.10192      123.11018843        1.82472971
      117.20161      128.80695409        1.88956921
      117.30131      128.99360745        2.26275137
      117.40100      131.76124714        1.92278306
      117.50069      135.49095322        1.85209041
      117.60039      143.34621770        1.82361446
      117.70008      147.77540134        1.79404014
      117.79977      155.03353488        2.25232149
      117.89947      151.19567650        1.93336357
      117.99916      154.38658029        1.97717609
      118.09885      160.23463289        2.05246065
      118.19855      164.91323583        2.18123656
      118.29824      164.99645926        2.39181831
      118.39793      169.70325489        2.20270333
      118.49763      172.12237677        2.09348395
      118.59732      177.96024471        2.05562499
      118.69701      179.43916021        2.15042032
      118.79671      176.92212584        2.30541057
      118.89640      174.59530227        2.13510505
      118.99609      177.10112295        2.14825907
      119.09579      181.19017781        2.19855865
      119.19548      178.15235940        2.38180476
      119.29517      185.09680739        2.52289349
      119.39487      175.40625430        2.25691949
      119.49456      173.78526899        2.11687443
      119.59425      173.01410094        2.05119813
      119.69395      163.38495221        2.10224834
      119.79364      159.93209976        2.10176092
      119.89333      155.17069527        2.00328360
      119.99303      157.73809431        1.97220959
      120.09272      150.00001316        1.96652705
      120.19241      148.98508207        2.20284618
      120.29211      146.04593467        2.15854937
      120.39180      139.13913635        2.00957940
      120.49149      134.44736052        1.83692665
      120.59119      130.41350770        1.75574043
      120.69088      128.53299430        1.87626368
      120.79057      124.36279803        1.80569210
      120.89027      122.23854560        1.75743239
      120.98996      122.39573631        1.74505659
      121.08966      121.29782829        1.75014981
      121.18935      119.28277632        1.98925161
      121.28904      122.00485723        1.96100819
      121.38874      114.49000260        1.79592364
      121.48843      114.18830285        1.69401087
      121.58812      114.31320759        1.61654976
      121.68782      115.94351195        1.80369102
      121.78751      117.28593802        1.72874629
      121.88720      112.52309216        1.67135310
      121.98690      112.58946340        1.68437639
      122.08659      113.94376577        1.72849204
      122.18628      110.92854522        1.97823551
      122.28598      107.96028706        1.83506287
      122.38567      107.01401236        1.74972533
      122.48536      107.11484685        1.65590898
      122.58506      112.32727254        1.60631921
      122.68475      108.22055100        1.78640818
      122.78444      108.31652531        1.68285156
      122.88414      106.78178561        1.65661422
      122.98383      105.35063175        1.67910668
      123.08352      108.08346391        1.68636420
      123.18322      104.13043559        1.93026466
      123.28291      103.86624285        1.75207289
      123.38260      104.43159522        1.69602040
      123.48230      100.78983626        1.60568608
      123.58199      101.72167422        1.50776266
      123.68168       97.78651914        1.68667306
      123.78138       99.26888139        1.53329539
      123.88107       95.85746769        1.47170591
      123.98076       91.81807537        1.46680044
      124.08046       90.58340352        1.44149243
      124.18015       92.30317948        1.64708449
      124.27984       85.48119563        1.41976084
      124.37954       83.77386136        1.32620534
      124.47923       81.24107879        1.27487663
      124.57893       77.65972775        1.32780837
