        5.04651       54.78149357        2.52365527
        5.14621       48.41063416        2.28586905
        5.24590       58.61340968        2.48006205
        5.34559       49.56836302        2.09110231
        5.44529       50.86279080        2.30454671
        5.54498       52.37366819        1.96721986
        5.64467       46.43368668        1.83573289
        5.74437       51.01117578        1.73713324
        5.84406       49.32927819        1.72864766
        5.94375       51.07953535        1.75679810
        6.04345       48.92130010        1.67047864
        6.14314       49.39269746        1.53688762
        6.24283       49.42615521        1.58816054
        6.34253       50.09204793        1.52498326
        6.44222       51.48408415        1.62799089
        6.54191       49.46888254        1.51167856
        6.64161       50.04655191        1.44043774
        6.74130       48.52252201        1.42398835
        6.84099       48.50562736        1.41343147
        6.94069       47.79918753        1.42419345
        7.04038       46.41827814        1.29544146
        7.14007       47.39166975        1.30628464
        7.23977       48.45158938        1.29776725
        7.33946       47.19535174        1.30038116
        7.43915       48.32047211        1.29867223
        7.53885       47.08528637        1.25825842
        7.63854       45.48754253        1.18196828
        7.73823       45.31217653        1.22493229
        7.83793       47.26356031        1.21071989
        7.93762       46.68284153        1.25514666
        8.03732       48.76172994        1.15052359
        8.13701       45.17238802        1.10223128
        8.23670       46.76209710        1.13734659
        8.33640       47.67830727        1.14878705
        8.43609       45.93075266        1.17872089
        8.53578       46.54030088        1.10519462
        8.63548       45.83340803        1.08413623
        8.73517       45.94937669        1.06482212
        8.83486       47.53375207        1.08572260
        8.93456       47.36795358        1.07825455
        9.03425       45.43407846        1.02502136
        9.13394       46.45060126        1.03841310
        9.23364       45.30908877        1.04050699
        9.33333       45.32777515        1.06191144
        9.43302       47.10107203        1.08295449
        9.53272       46.52632032        1.03994143
        9.63241       48.01650032        1.08638249
        9.73210       47.28082418        1.07583921
        9.83180       47.46046614        1.12315151
        9.93149       45.16713397        1.08774886
       10.03118       46.41919681        1.06107644
       10.13088       46.90859653        1.04111400
       10.23057       47.65542667        1.09893204
       10.33026       46.36021964        1.12033809
       10.42996       48.65715378        1.13212212
       10.52965       46.10764168        1.06720023
       10.62934       47.47231027        1.08553216
       10.72904       46.96824135        1.09570298
       10.82873       47.75739646        1.09933252
       10.92842       48.00828838        1.12070152
       11.02812       48.69936040        1.07538809
       11.12781       48.45281379        1.11112921
       11.22750       49.79655701        1.13770761
       11.32720       50.49608512        1.17651560
       11.42689       50.33535056        1.13388125
       11.52658       53.59709727        1.15623111
       11.62628       51.75087787        1.14839557
       11.72597       58.80235237        1.25044784
       11.82567       60.18893118        1.30034844
       11.92536       60.94064833        1.22449880
       12.02505       70.39683154        1.32264493
       12.12475       73.78300052        1.35301106
       12.22444       80.21417487        1.49624063
       12.32413       90.98075464        1.61832279
       12.42383      103.83835998        1.64160666
       12.52352      119.01773787        1.74730832
       12.62321      138.09999240        1.93643917
       12.72291      162.68805652        2.04629527
       12.82260      191.03132916        2.41179614
       12.92229      211.95512210        2.30798706
       13.02199      237.70079391        2.42563572
       13.12168      272.90288132        2.64574093
       13.22137      298.05688444        2.85511140
       13.32107      317.72031317        3.04259315
       13.42076      348.21331119        3.06720800
       13.52045      363.44901062        3.17122265
       13.62015      361.79755831        3.06573555
       13.71984      344.93514933        3.11891018
       13.81953      316.83265192        3.03903465
       13.91923      281.20354014        2.68882699
       14.01892      222.87740956        2.32935555
       14.11861      169.78424844        2.12015999
       14.21831      132.63723326        1.87517298
       14.31800      108.55336183        1.78562582
       14.41769       83.65304120        1.50902105
       14.51739       69.65340216        1.34314353
       14.61708       60.22710395        1.25190327
       14.71677       54.04070320        1.20506532
       14.81647       51.48461581        1.23211894
       14.91616       49.87595813        1.11519121
       15.01585       50.12726705        1.13816933
       15.11555       47.51994174        1.12091594
       15.21524       49.99986192        1.18514140
       15.31493       46.14715113        1.16586416
       15.41463       47.41994185        1.14433372
       15.51432       48.44370885        1.12082334
       15.61402       45.69526690        1.11602110
       15.71371       46.69980952        1.12051149
       15.81340       45.73759566        1.15354971
       15.91310       46.25042493        1.12714057
       16.01279       47.01248111        1.08810992
       16.11248       45.80356909        1.10282339
       16.21218       45.61332207        1.13102124
       16.31187       49.01641925        1.17546149
       16.41156       44.66033979        1.10095331
       16.51126       46.09190493        1.13742816
       16.61095       48.98360461        1.13073606
       16.71064       48.68333424        1.16289234
       16.81034       49.55736073        1.17687165
       16.91003       53.24190788        1.18481147
       17.00972       55.42596351        1.16059619
       17.10942       52.52845184        1.19405912
       17.20911       59.98515060        1.28759004
       17.30880       64.21574957        1.34396449
       17.40850       68.55574768        1.38849239
       17.50819       72.03107510        1.38212686
       17.60788       74.71160921        1.45143745
       17.70758       78.55039578        1.49459139
       17.80727       77.47772848        1.50262119
       17.90696       72.94430131        1.36298375
       18.00666       68.41009057        1.34291450
       18.10635       61.91297154        1.24237655
       18.20604       59.96871545        1.34127073
       18.30574       57.12594226        1.24753793
       18.40543       54.68229429        1.19026673
       18.50512       52.81388576        1.20659563
       18.60482       54.81776266        1.21007924
       18.70451       51.17079902        1.23533575
       18.80420       52.79655065        1.17886952
       18.90390       49.30110651        1.12687760
       19.00359       46.87182724        1.06995058
       19.10328       46.52926185        1.12783751
       19.20298       48.50731660        1.18747657
       19.30267       46.29038552        1.11390709
       19.40237       46.56175841        1.10453415
       19.50206       43.57480852        1.09526817
       19.60175       47.17748270        1.12701047
       19.70145       43.51203647        1.13479146
       19.80114       46.44813516        1.11211654
       19.90083       47.30725586        1.08445810
       20.00053       45.83350520        1.08631622
       20.10022       45.73156412        1.09316276
       20.19991       49.55282674        1.21672496
       20.29961       48.94531463        1.14574011
       20.39930       46.61180117        1.15177626
       20.49899       51.33946508        1.18797397
       20.59869       50.68472908        1.20192839
       20.69838       51.25897277        1.25331605
       20.79807       53.26258846        1.21863791
       20.89777       55.68020671        1.21790383
       20.99746       55.13475556        1.22395033
       21.09715       54.45014418        1.28114998
       21.19685       56.55514690        1.29897024
       21.29654       58.27855312        1.28637805
       21.39623       55.97512441        1.26066387
       21.49593       54.72020263        1.22858252
       21.59562       53.05880124        1.23884732
       21.69531       50.57315075        1.25791009
       21.79501       49.63490114        1.13997504
       21.89470       47.53100327        1.09037053
       21.99439       48.19481966        1.14453588
       22.09409       45.84691838        1.11898224
       22.19378       45.00850420        1.17739807
       22.29347       45.37050508        1.10097807
       22.39317       49.20749155        1.17645049
       22.49286       46.36443126        1.14093191
       22.59255       46.98027056        1.16201350
       22.69225       49.08286025        1.25172594
       22.79194       51.12026570        1.14734340
       22.89163       55.72785593        1.17470299
       22.99133       56.81035066        1.21899426
       23.09102       61.52281404        1.31765708
       23.19072       66.74536276        1.37593484
       23.29041       69.12059008        1.38288492
       23.39010       69.15732620        1.39774531
       23.48980       70.08744894        1.41226817
       23.58949       65.89280379        1.38751325
       23.68918       60.54746040        1.39836347
       23.78888       57.32227812        1.21243775
       23.88857       53.77468727        1.18953891
       23.98826       49.88014212        1.17108429
       24.08796       46.06305284        1.10330854
       24.18765       43.92495538        1.15435312
       24.28734       42.36462887        1.07930073
       24.38704       43.75327016        1.11523364
       24.48673       42.82011411        1.09929521
       24.58642       44.31856904        1.15542989
       24.68612       44.48839190        1.15611887
       24.78581       44.69038140        1.06816977
       24.88550       45.13096758        1.07300125
       24.98520       42.74273828        1.08275984
       25.08489       44.48783323        1.12676795
       25.18458       44.14365003        1.14596433
       25.28428       47.90485129        1.15074903
       25.38397       47.39212804        1.13899382
       25.48366       49.06626397        1.16593867
       25.58336       54.35760704        1.27934167
       25.68305       60.21051383        1.32081997
       25.78274       70.27285343        1.34713818
       25.88244       87.81674969        1.54468025
       25.98213      107.62122864        1.72472268
       26.08182      125.69374853        1.91333664
       26.18152      150.51915596        2.14538165
       26.28121      175.29607492        2.19094268
       26.38090      189.62240139        2.29842310
       26.48060      196.91405900        2.40732996
       26.58029      185.47328545        2.43681912
       26.67998      171.12380155        2.21042374
       26.77968      146.11572767        2.01751788
       26.87937      117.49579737        1.78238263
       26.97907       95.47032558        1.59261996
       27.07876       81.36688035        1.58265583
       27.17845       77.32861455        1.47431919
       27.27815       79.37598573        1.45880288
       27.37784       79.28877972        1.51476690
       27.47753       86.95196688        1.56324866
       27.57723       84.17051165        1.61102082
       27.67692       83.74608275        1.56851595
       27.77661       75.18262597        1.41812282
       27.87631       69.01011744        1.33590550
       27.97600       63.32355713        1.30837038
       28.07569       57.20302782        1.31591904
       28.17539       52.76254502        1.20973125
       28.27508       50.30838319        1.18169681
       28.37477       50.46286755        1.21168771
       28.47447       47.55125558        1.16690633
       28.57416       50.98515158        1.30648224
       28.67385       50.37792297        1.15538329
       28.77355       50.67586389        1.13788964
       28.87324       57.18348418        1.24121617
       28.97293       55.49000675        1.22547523
       29.07263       57.34168979        1.35802237
       29.17232       55.80483484        1.22252758
       29.27201       56.55365187        1.25347859
       29.37171       52.20893290        1.23876227
       29.47140       50.19840177        1.20058042
       29.57109       47.99228686        1.24471685
       29.67079       48.34671722        1.13737189
       29.77048       45.69617387        1.10821734
       29.87017       47.27557553        1.10514366
       29.96987       49.76046020        1.18894203
       30.06956       44.66140588        1.16185707
       30.16925       45.94402300        1.10960732
       30.26895       45.33630214        1.10643123
       30.36864       48.80804160        1.16691683
       30.46833       49.97127558        1.19275192
       30.56803       52.91677099        1.29667300
       30.66772       53.04908155        1.20815320
       30.76742       57.26095429        1.23023996
       30.86711       62.27518903        1.30875721
       30.96680       62.67011556        1.32049879
       31.06650       61.10452369        1.36713356
       31.16619       60.10684141        1.27485660
       31.26588       57.03514958        1.23426869
       31.36558       57.79084450        1.25872819
       31.46527       56.45554664        1.29444304
       31.56496       59.24929131        1.34750875
       31.66466       61.04525590        1.27919797
       31.76435       72.00896247        1.38838070
       31.86404       78.28756894        1.42884690
       31.96374       83.08694936        1.50631212
       32.06343       86.08018096        1.58676606
       32.16312       88.46348686        1.51186046
       32.26282       85.79486807        1.52518144
       32.36251       78.17757919        1.51383354
       32.46220       72.81504256        1.48699448
       32.56190       70.45168351        1.48854036
       32.66159       67.10681260        1.37948808
       32.76128       66.94093089        1.34687402
       32.86098       62.65209624        1.32238588
       32.96067       62.40041019        1.33625121
       33.06036       60.66271751        1.34147391
       33.16006       58.46777078        1.24018184
       33.25975       55.36956125        1.24594814
       33.35944       56.90423505        1.27001099
       33.45914       57.64624521        1.32691980
       33.55883       56.60925007        1.31795847
       33.65852       59.85238146        1.26382556
       33.75822       65.27542194        1.31775228
       33.85791       74.26342971        1.41161844
       33.95760       81.16790943        1.51957936
       34.05730       91.69033746        1.59975699
       34.15699      103.81013566        1.67554274
       34.25668      120.38883446        1.79863690
       34.35638      148.79176347        2.05232490
       34.45607      181.66752483        2.38931138
       34.55577      233.98011133        2.58592633
       34.65546      290.80195004        2.76584476
       34.75515      364.10580442        3.15586276
       34.85485      421.97364833        3.37307509
       34.95454      442.76972962        3.56412284
       35.05423      429.87281840        3.63159666
       35.15393      381.89620816        3.21290020
       35.25362      320.86902337        2.99014874
       35.35331      251.49915563        2.71465478
       35.45301      190.12667930        2.46132782
       35.55270      148.08028963        2.11413843
       35.65239      106.63698924        1.73137420
       35.75209       87.40167738        1.55545640
       35.85178       79.71981833        1.48332217
       35.95147       73.14014338        1.45399251
       36.05117       68.56962296        1.37868553
       36.15086       63.93582546        1.27990358
       36.25055       64.36606348        1.34173725
       36.35025       63.03100872        1.35370609
       36.44994       59.36175806        1.33981189
       36.54963       58.61736749        1.27804574
       36.64933       59.41303210        1.26752859
       36.74902       57.67318908        1.26180537
       36.84871       53.92666507        1.21117124
       36.94841       52.22280811        1.28887367
       37.04810       51.21143822        1.12536337
       37.14779       49.56751031        1.12979114
       37.24749       49.56082956        1.16114037
       37.34718       50.30572477        1.19970696
       37.44687       49.33324655        1.27616180
       37.54657       49.03757079        1.16154339
       37.64626       48.31648208        1.14852158
       37.74595       45.07007901        1.09179711
       37.84565       47.44384999        1.18535062
       37.94534       47.37338483        1.20667179
       38.04503       44.97719589        1.06259125
       38.14473       47.39462717        1.10155677
       38.24442       48.13183238        1.13040862
       38.34412       45.97287731        1.15492907
       38.44381       47.94851666        1.27545536
       38.54350       47.80614132        1.13526080
       38.64320       48.83473122        1.14397250
       38.74289       52.14154270        1.19766942
       38.84258       52.30974559        1.20250742
       38.94228       56.67014967        1.31298855
       39.04197       58.43685861        1.20231258
       39.14166       65.12163725        1.32060098
       39.24136       67.63792405        1.34233995
       39.34105       70.44502124        1.41780431
       39.44074       71.46577521        1.55770456
       39.54044       71.56396679        1.39375704
       39.64013       69.71562417        1.37135779
       39.73982       65.71051582        1.33660340
       39.83952       62.93009612        1.29906989
       39.93921       62.34341339        1.37097777
       40.03890       58.03010752        1.21057516
       40.13860       57.80919178        1.20670074
       40.23829       57.60552898        1.24718015
       40.33798       56.98971588        1.27913794
       40.43768       56.33207315        1.33055148
       40.53737       56.85863979        1.24070441
       40.63706       55.90003984        1.25598815
       40.73676       58.49113716        1.28284383
       40.83645       60.18228756        1.31219737
       40.93614       63.14120143        1.36672506
       41.03584       69.91136647        1.35368373
       41.13553       76.87676595        1.42134968
       41.23522       92.98063869        1.60171940
       41.33492      112.71760571        1.84680953
       41.43461      138.09127184        2.11067868
       41.53430      162.79340951        2.14700271
       41.63400      191.75345888        2.38226524
       41.73369      205.14055146        2.41047877
       41.83338      211.76582994        2.51472398
       41.93308      218.89329430        2.53446912
       42.03277      220.47931770        2.32480355
       42.13247      250.19998165        2.60448145
       42.23216      293.64500612        2.82807097
       42.33185      351.43707058        3.32263881
       42.43155      416.57704884        3.56596851
       42.53124      480.82286776        3.71098489
       42.63093      522.15925996        3.87480543
       42.73063      534.33152353        3.93683308
       42.83032      516.18784694        3.93697375
       42.93001      490.70146658        3.69496437
       43.02971      427.94837399        3.25906819
       43.12940      339.94336226        2.96138777
       43.22909      263.04027471        2.73626283
       43.32879      200.62250945        2.51575985
       43.42848      157.60468300        2.17985493
       43.52817      114.61495187        1.77721783
       43.62787       86.67403275        1.53949780
       43.72756       72.32555682        1.43917895
       43.82725       67.30032260        1.44952583
       43.92695       61.33706136        1.25467328
       44.02664       55.98151123        1.19272644
       44.12633       56.36020789        1.24139413
       44.22603       55.67094769        1.28416819
       44.32572       55.08069588        1.34624231
       44.42541       55.22361169        1.28700070
       44.52511       54.22359935        1.24094898
       44.62480       54.38966462        1.26042404
       44.72449       56.43399396        1.24428025
       44.82419       59.82375590        1.43768484
       44.92388       64.80979443        1.24817680
       45.02357       73.28396734        1.33841753
       45.12327       86.88112815        1.50149898
       45.22296      107.20393425        1.71256248
       45.32265      124.92142644        2.04549969
       45.42235      150.46710407        2.04497042
       45.52204      180.34969903        2.21743702
       45.62174      202.47896393        2.39276998
       45.72143      218.25188511        2.48440772
       45.82112      229.12000490        2.78699857
       45.92082      226.10388129        2.35004829
       46.02051      227.30842522        2.40680986
       46.12020      218.33426387        2.36612574
       46.21990      212.76669101        2.45464850
       46.31959      201.35843504        2.57848041
       46.41928      183.50843748        2.27303893
       46.51898      158.09683049        2.12064566
       46.61867      130.43712938        1.91548597
       46.71836      102.17178815        1.73769283
       46.81806       86.63877294        1.65867104
       46.91775       72.10186946        1.31844144
       47.01744       67.78110156        1.30867949
       47.11714       63.00272316        1.29030496
       47.21683       68.66363761        1.38690363
       47.31652       78.83112534        1.62164100
       47.41622       86.86393756        1.60439213
       47.51591      103.83289073        1.75797658
       47.61560      117.80148412        1.85717566
       47.71530      135.55087263        2.01427720
       47.81499      143.98517546        2.12823103
       47.91468      154.66991751        1.92980744
       48.01438      166.69663917        2.00477037
       48.11407      171.69997226        2.11093838
       48.21376      171.49588106        2.20265443
       48.31346      166.10032593        2.24474702
       48.41315      157.99150333        2.04047556
       48.51284      140.74547555        1.98935421
       48.61254      126.29316705        1.87645652
       48.71223      111.07599427        1.79131027
       48.81192       92.38742045        1.62913208
       48.91162       78.02258090        1.34167328
       49.01131       64.51619456        1.26235791
       49.11100       58.26386797        1.24265224
       49.21070       52.64348972        1.23989924
       49.31039       51.27389606        1.25932391
       49.41009       51.72441012        1.19490597
       49.50978       50.18229883        1.20124813
       49.60947       48.99240643        1.19555948
       49.70917       48.53240201        1.23403619
       49.80886       49.90587759        1.21795784
       49.90855       48.19619688        1.09024572
       50.00825       52.05413313        1.15712997
       50.10794       50.79951968        1.16906374
       50.20763       51.20736113        1.22631187
       50.30733       50.47557899        1.27530261
       50.40702       51.96411455        1.21350558
       50.50671       54.40730101        1.24545918
       50.60641       54.47108910        1.24795708
       50.70610       58.09058481        1.32624772
       50.80579       56.91772452        1.29541337
       50.90549       57.29061189        1.17175971
       51.00518       53.45884530        1.14177742
       51.10487       55.70541293        1.20488541
       51.20457       56.43061027        1.29106399
       51.30426       56.51539267        1.28531639
       51.40395       57.49275369        1.24284822
       51.50365       59.59185849        1.27987964
       51.60334       62.05871365        1.33201193
       51.70303       62.19106618        1.41603617
       51.80273       60.77136316        1.28391243
       51.90242       59.94537736        1.19135729
       52.00211       61.48833992        1.21236413
       52.10181       62.29368681        1.25893557
       52.20150       60.62937510        1.36770523
       52.30119       61.59596339        1.32801498
       52.40089       64.55899943        1.33843191
       52.50058       60.34441834        1.31825681
       52.60027       59.20363960        1.32351814
       52.69997       61.48064891        1.47820537
       52.79966       60.20695239        1.22977742
       52.89935       65.10289773        1.23410387
       52.99905       74.37207572        1.34096349
       53.09874       88.12830962        1.50735229
       53.19844      101.00360356        1.84848499
       53.29813      108.54682613        1.70309651
       53.39782      120.26347559        1.85487053
       53.49752      132.01538672        1.95265646
       53.59721      139.65883561        2.00709025
       53.69690      146.09812931        2.25277717
       53.79660      150.62355230        1.91631936
       53.89629      148.04409590        1.87918252
       53.99598      144.96153804        1.90487890
       54.09568      135.23246576        1.92087446
       54.19537      123.35308664        2.00024513
       54.29506      114.98978991        1.77394291
       54.39476      104.31989840        1.70230887
       54.49445       95.63489414        1.63072119
       54.59414       93.67890948        1.63851910
       54.69384       87.49578356        1.68898764
       54.79353       88.67123657        1.45815242
       54.89322       82.28320743        1.39930270
       54.99292       80.13990335        1.42132273
       55.09261       77.56397705        1.45405385
       55.19230       71.02606099        1.49393315
       55.29200       65.20515993        1.33203856
       55.39169       63.10691378        1.35207127
       55.49138       59.70557476        1.31011833
       55.59108       55.74429616        1.30634118
       55.69077       56.19990062        1.34615093
       55.79046       55.21202382        1.16648394
       55.89016       55.91260131        1.17108566
       55.98985       55.23079472        1.17135634
       56.08954       58.14719250        1.24161484
       56.18924       64.84070280        1.41529203
       56.28893       71.00965824        1.35575934
       56.38862       81.07406418        1.49886956
       56.48832       93.46697985        1.63755620
       56.58801      105.16667222        1.78776886
       56.68770      112.05215297        1.90489820
       56.78740      117.22643020        1.66772019
       56.88709      113.50578464        1.65720862
       56.98679      106.65711667        1.60758093
       57.08648       95.63384462        1.61321343
       57.18617       87.13607436        1.59414094
       57.28587       75.37282739        1.38484184
       57.38556       69.18667960        1.41220763
       57.48525       60.43762204        1.34492624
       57.58495       53.48492993        1.29393056
       57.68464       55.55663453        1.33037611
       57.78433       52.71933346        1.13360099
       57.88403       52.89690597        1.14875388
       57.98372       51.17295006        1.14780155
       58.08341       48.60298059        1.20936567
       58.18311       54.81948725        1.31412473
       58.28280       54.65314580        1.23587301
       58.38249       51.76459150        1.25665381
       58.48219       51.96282775        1.28625413
       58.58188       53.62504766        1.32103252
       58.68157       50.49543762        1.25601904
       58.78127       53.43609404        1.13029795
       58.88096       54.55896782        1.12530480
       58.98065       54.62786824        1.16889291
       59.08035       57.41797415        1.27884801
       59.18004       58.37677794        1.30809806
       59.27973       60.28442396        1.25425205
       59.37943       62.59833593        1.32032033
       59.47912       64.63697376        1.39671606
       59.57881       70.09425626        1.52394877
       59.67851       73.46346645        1.45465233
       59.77820       83.97097997        1.43011677
       59.87789       91.24637343        1.48574505
       59.97759       97.84974229        1.60970349
       60.07728      100.95964092        1.77075086
       60.17697      108.56231713        1.74964496
       60.27667      111.11420048        1.72108387
       60.37636      107.47480927        1.72527661
       60.47605      104.43303130        1.77405443
       60.57575      101.59152769        1.91751418
       60.67544       94.38693587        1.58758758
       60.77514       84.08935448        1.42416300
       60.87483       76.57651328        1.33243210
       60.97452       70.48671591        1.34651787
       61.07422       69.02166125        1.49680950
       61.17391       69.18574337        1.29814457
       61.27360       66.22689788        1.31504673
       61.37330       66.51519252        1.36679696
       61.47299       66.64444766        1.42825724
       61.57268       70.58139957        1.67169895
       61.67238       70.25622437        1.35931395
       61.77207       68.59146772        1.30801624
       61.87176       71.81764072        1.32366183
       61.97146       70.07010124        1.35733779
       62.07115       69.76608734        1.53392147
       62.17084       68.30194357        1.32966015
       62.27054       65.30895329        1.35555804
       62.37023       67.22862982        1.43022293
       62.46992       68.57308814        1.49403086
       62.56962       69.36834816        1.68776926
       62.66931       68.37180833        1.34980365
       62.76900       76.02749840        1.38768236
       62.86870       82.58013117        1.41496024
       62.96839       92.89473760        1.54907936
       63.06808       98.38123611        1.77431503
       63.16778      107.18811624        1.64441545
       63.26747      111.33336544        1.73441846
       63.36716      114.27555636        1.82364043
       63.46686      118.61831009        1.91387902
       63.56655      119.44309149        2.04025943
       63.66624      128.11682323        1.79639322
       63.76594      143.63762778        1.84843667
       63.86563      160.58041489        1.94929735
       63.96532      169.01017569        2.09303830
       64.06502      174.12411396        2.27628335
       64.16471      175.61309251        2.11464651
       64.26440      162.71556748        2.11826659
       64.36410      154.75151725        2.10725331
       64.46379      133.59539223        2.06945650
       64.56349      125.49285047        2.04115079
       64.66318      107.01762991        1.64901133
       64.76287       88.03256557        1.47641629
       64.86257       71.12210913        1.32439978
       64.96226       65.39172782        1.33002097
       65.06195       57.88387223        1.35277779
       65.16165       55.86398234        1.19876614
       65.26134       56.19119150        1.23043743
       65.36103       55.99580501        1.28169324
       65.46073       53.88688355        1.29853986
       65.56042       50.92899079        1.31835996
       65.66011       55.33693682        1.19845554
       65.75981       57.63822164        1.21098300
       65.85950       60.40810021        1.23194221
       65.95919       61.66844970        1.30301446
       66.05889       64.53060109        1.37881238
       66.15858       69.43085959        1.36020194
       66.25827       76.61832070        1.47798773
       66.35797       87.03282469        1.64139611
       66.45766       94.06164690        1.81327544
       66.55735      109.53211795        1.95692672
       66.65705      122.53424331        1.83648329
       66.75674      134.89042757        1.87806370
       66.85643      152.20075850        1.97307055
       66.95613      163.54804997        2.12715795
       67.05582      166.41424078        2.16189273
       67.15551      168.34668646        2.06933886
       67.25521      162.39067670        2.13299251
       67.35490      154.22309135        2.18803291
       67.45459      137.13067057        2.17513403
       67.55429      125.19619182        1.99092635
       67.65398      106.55066213        1.64569555
       67.75367       90.00658050        1.49960153
       67.85337       81.54423109        1.44466587
       67.95306       75.75475354        1.48870649
       68.05275       74.71419732        1.39987699
       68.15245       79.82718974        1.43471845
       68.25214       86.74930088        1.58769533
       68.35184       91.97092986        1.70388013
       68.45153      103.88262079        1.99415300
       68.55122      105.10123711        1.72784824
       68.65092      117.88222364        1.70618395
       68.75061      124.09054149        1.76883195
       68.85030      129.54241777        1.84235208
       68.95000      126.85598418        2.06683645
       69.04969      127.05282138        1.74693060
       69.14938      117.66218201        1.72831228
       69.24908      102.49498805        1.72198811
       69.34877       97.91953183        1.74074998
       69.44846       88.70505998        1.92137615
       69.54816       77.67573583        1.40143217
       69.64785       66.53451886        1.27839802
       69.74754       59.18102155        1.21756667
       69.84724       55.81360269        1.21314760
       69.94693       55.23660972        1.36200840
       70.04662       50.45843948        1.07032590
       70.14632       50.37569959        1.11207823
       70.24601       46.40096053        1.14263766
       70.34570       47.15266009        1.21891703
       70.44540       47.93393970        1.44806142
       70.54509       46.98514173        1.12213565
       70.64478       47.96618434        1.13221682
       70.74448       48.94561057        1.16188607
       70.84417       49.48446546        1.21231176
       70.94386       49.21370222        1.32711994
       71.04356       52.25565359        1.13174068
       71.14325       52.60964097        1.18007027
       71.24294       52.45667149        1.23981106
       71.34264       56.18367798        1.36070491
       71.44233       56.33934208        1.52051015
       71.54202       54.53117642        1.21778143
       71.64172       56.63593435        1.20732732
       71.74141       54.73762560        1.16530516
       71.84110       53.99432541        1.19802468
       71.94080       50.54417643        1.26292228
       72.04049       49.56205708        1.05846616
       72.14019       50.68056527        1.11523921
       72.23988       50.09936986        1.16015335
       72.33957       53.50907856        1.33943237
       72.43927       55.76508241        1.50532778
       72.53896       53.24150464        1.17921726
       72.63865       51.28046250        1.13112664
       72.73835       54.11544816        1.13653057
       72.83804       56.48515166        1.22623206
       72.93773       57.89818048        1.31878466
       73.03743       60.70124722        1.17221656
       73.13712       61.47237376        1.24405167
       73.23681       63.05288813        1.32375755
       73.33651       61.25043310        1.43553833
       73.43620       63.80709758        1.58715431
       73.53589       65.53448792        1.29763442
       73.63559       64.09883879        1.26312604
       73.73528       62.49890783        1.24152541
       73.83497       62.94681447        1.32095024
       73.93467       66.54938880        1.43039586
       74.03436       64.18827388        1.24313342
       74.13405       62.85490084        1.28239440
       74.23375       64.83526070        1.35677270
       74.33344       65.15403919        1.49730467
       74.43313       63.49637297        1.53371369
       74.53283       67.29977637        1.34174264
       74.63252       67.37587121        1.33277349
       74.73221       72.41856574        1.37522947
       74.83191       74.03096600        1.47505638
       74.93160       81.05539533        1.56120308
       75.03129       83.80112945        1.41136581
       75.13099       83.90363638        1.46273442
       75.23068       92.28598065        1.60052544
       75.33037       92.60934216        1.76230495
       75.43007      100.85825595        1.86607583
       75.52976      105.03253859        1.65414992
       75.62945      118.41053380        1.75545588
       75.72915      129.90326481        1.83196211
       75.82884      131.59685651        1.98520602
       75.92854      131.10966740        1.86002553
       76.02823      142.54005881        1.81953814
       76.12792      148.76831333        1.94324718
       76.22762      152.68431297        2.07729561
       76.32731      149.92294684        2.32452213
       76.42700      151.28833880        2.20400764
       76.52670      150.15637893        2.02562792
       76.62639      140.85670876        1.93654081
       76.72608      129.43731349        1.82494795
       76.82578      131.65405997        2.12101082
       76.92547      124.72904112        1.65323135
       77.02516      120.61084179        1.68473923
       77.12486      125.77526888        1.80759508
       77.22455      125.15146456        1.91982173
       77.32424      132.19376380        2.42454112
       77.42394      133.69446677        1.94694293
       77.52363      133.38622072        1.87915942
       77.62332      134.28317570        1.87684437
       77.72302      140.82479253        1.92674148
       77.82271      146.00483477        2.30113605
       77.92240      142.07019336        1.73791101
       78.02210      141.96611860        1.87457987
       78.12179      141.56772207        1.99933546
       78.22148      136.19799607        2.07340747
       78.32118      132.73320541        2.37487369
       78.42087      128.86367768        1.84145075
       78.52056      125.31966964        1.87515088
       78.62026      115.04670580        1.78200938
       78.71995      106.95659765        1.72358285
       78.81964      101.39665231        1.87424020
       78.91934       94.57199002        1.40229104
       79.01903       83.11465767        1.44076582
       79.11872       76.85120717        1.44155561
       79.21842       72.94389200        1.49803628
       79.31811       69.78673704        1.65033048
       79.41780       65.63648599        1.29815264
       79.51750       66.52664663        1.32802141
       79.61719       63.91069649        1.30535967
       79.71689       65.34067437        1.37041912
       79.81658       63.58669815        1.43298779
       79.91627       66.39311310        1.24131171
       80.01597       61.25771464        1.22532932
       80.11566       61.91961062        1.28784557
       80.21535       63.99024245        1.39957653
       80.31505       63.47300783        1.65699208
       80.41474       65.62199113        1.29473105
       80.51443       67.68171500        1.30922782
       80.61413       72.27208336        1.39798144
       80.71382       78.25235862        1.50510071
       80.81351       81.62525702        1.72747922
       80.91321       92.45418364        1.35619619
       81.01290      108.41020828        1.58604089
       81.11259      126.04240595        1.84663797
       81.21229      143.43577316        2.13157091
       81.31198      157.01445212        2.48840151
       81.41167      175.29713860        2.05935026
       81.51137      191.39779690        2.21417647
       81.61106      212.00260458        2.43429324
       81.71075      228.45782599        2.61624326
       81.81045      238.25268899        2.83089137
       81.91014      252.45813060        2.24116467
       82.00983      271.62907431        2.48576911
       82.10953      284.72373446        2.84781515
       82.20922      288.47165268        3.18797981
       82.30891      285.00639456        3.32203494
       82.40861      289.50065082        2.72303770
       82.50830      282.58387944        2.68271344
       82.60799      280.87979756        2.88095915
       82.70769      283.35462838        3.14932012
       82.80738      283.44072016        3.00954764
       82.90707      280.07912705        2.42917467
       83.00677      267.10660377        2.52686485
       83.10646      262.42896198        2.94711267
       83.20615      251.85057824        3.21302632
       83.30585      242.96629957        2.98937240
       83.40554      226.52985246        2.39913592
       83.50524      210.62283553        2.25679242
       83.60493      189.88248830        2.35967367
       83.70462      174.32958247        2.54879535
       83.80432      165.40294979        2.16951124
       83.90401      137.67999472        1.65930185
       84.00370      117.52537971        1.59828148
       84.10340       95.71547761        1.72260770
       84.20309       90.30425482        2.03114881
       84.30278       84.12212888        1.59411389
       84.40248       75.78216809        1.33503640
       84.50217       72.75184670        1.28317133
       84.60186       66.31184862        1.38493814
       84.70156       66.19790165        1.81075025
       84.80125       64.64205068        1.24570545
       84.90094       64.41008394        1.11702091
       85.00064       65.06109884        1.15669293
       85.10033       64.62768014        1.36432933
       85.20002       65.08028243        2.34817947
       85.29972       62.47510727        1.21352253
       85.39941       64.91962572        1.26132395
       85.49910       66.48925158        1.24141313
       85.59880       68.19862932        1.41383967
       85.69849       67.25070733        2.52054573
       85.79818       64.57022671        1.16431433
       85.89788       64.62805442        1.13700634
       85.99757       64.77566025        1.16961630
       86.09726       64.08056474        1.33563500
       86.19696       62.58931835        2.53513211
       86.29665       63.28170929        1.20634281
       86.39634       61.39494413        1.20876427
       86.49604       60.02553823        1.17707548
       86.59573       57.54567480        1.22787071
       86.69542       56.28071403        2.53874272
       86.79512       55.17689201        1.04342914
       86.89481       54.32109428        1.02068571
       86.99451       53.10907370        1.04607046
       87.09420       52.51398311        1.16007397
       87.19389       55.48675682        2.82496480
       87.29359       51.25073607        1.10014870
       87.39328       52.12519380        1.12451917
       87.49297       49.66519701        1.06548834
       87.59267       48.30771110        1.07143852
       87.69236       43.80660683        3.05255906
       87.79205       47.71399684        0.99254919
       87.89175       50.28317654        1.01080927
       87.99144       47.87429017        1.02765107
       88.09113       48.84723464        1.10335072
       88.19083       52.81202881        6.07181363
       88.29052       50.03434230        1.12376098
       88.39021       47.39506313        1.10090848
       88.48991       47.24268483        1.05485521
       88.58960       50.83172943        1.05976309
       88.68929       53.91474665        8.45584911
       88.78899       49.97819410        1.01426509
       88.88868       49.60724173        0.98841151
       88.98837       49.28453804        1.02467850
       89.08807       50.35751356        1.06095532
       89.18776       44.97288617        8.15640129
       89.28745       51.04314517        1.08528153
       89.38715       51.56346167        1.10202327
       89.48684       53.14764356        1.09494547
       89.58653       55.07074738        1.09200784
       89.68623       67.95203504        9.83813832
       89.78592       59.40766543        1.10223580
       89.88561       60.99886760        1.09503207
       89.98531       65.71797287        1.16565112
       90.08500       69.50458849        1.24343731
       90.18469       60.82351651        9.69820883
       90.28439       75.10577598        1.32034626
       90.38408       80.82363708        1.39292429
       90.48377       82.91542208        1.38441005
       90.58347       88.18341037        1.40549404
       90.68316       95.51424177       11.39698611
       90.78286       94.84231874        1.39556488
       90.88255       93.01961805        1.34472809
       90.98224       97.03255657        1.42118700
       91.08194      101.47286003        1.50125568
       91.18163      110.60826986       12.51121563
       91.28132      101.08746075        1.54272914
       91.38102       96.89511460        1.55025574
       91.48071       97.60553026        1.51778780
       91.58040       94.20274649        1.44190915
       91.68010       81.09149975       10.11630191
       91.77979       87.12518010        1.33084148
       91.87948       83.74062592        1.28443914
       91.97918       82.59156145        1.32453774
       92.07887       80.38878841        1.36112183
       92.17856       79.10359394       10.26561823
       92.27826       79.24416843        1.39566315
       92.37795       77.94313905        1.41692960
       92.47764       73.73166410        1.30805415
       92.57734       79.61436115        1.31887010
       92.67703       75.94595173        8.36048224
       92.77672       78.95653771        1.26583123
       92.87642       82.70741734        1.27097630
       92.97611       83.91006012        1.33682246
       93.07580       92.05872284        1.59856327
       93.17550       91.07030392        2.98964491
       93.27519       90.17962915        1.45821968
       93.37488       93.03577474        1.43990924
       93.47458       99.01191920        1.50208275
       93.57427       98.11748421        1.72867876
       93.67396       97.71796053        2.33136828
       93.77366       96.35885409        1.43409426
       93.87335       96.90869181        1.37376972
       93.97304       94.05783314        1.41028888
       94.07274       90.45604007        1.79534861
       94.17243       88.47883433        2.02587556
       94.27212       90.18503021        1.52347520
       94.37182       88.42916401        1.47016138
       94.47151       88.29227696        1.40684315
       94.57121       83.78886316        1.80844454
       94.67090       83.79867245        1.82949646
       94.77059       84.93664810        1.43188071
       94.87029       79.25951706        1.25754819
       94.96998       72.02225241        1.21364250
       95.06967       69.26864475        1.37193449
       95.16937       69.10406316        1.87580440
       95.26906       66.61795377        1.42267865
       95.36875       63.60464510        1.26126969
       95.46845       61.62100806        1.19300270
       95.56814       61.55652697        1.37205966
       95.66783       57.45800949        1.48903234
       95.76753       58.54778206        1.24214637
       95.86722       55.32821415        1.02701398
       95.96691       54.28302106        1.05512397
       96.06661       53.02412667        1.33581149
       96.16630       54.43544677        1.44341175
       96.26599       51.32051000        1.25850509
       96.36569       49.69896476        1.11118408
       96.46538       50.84313695        1.08470868
       96.56507       47.81859967        1.29824341
       96.66477       45.88358902        1.23910110
       96.76446       47.62638341        1.12818581
       96.86415       46.49803369        0.96554413
       96.96385       47.89551749        1.01218120
       97.06354       44.98079565        1.32624040
       97.16323       47.94809776        1.30939159
       97.26293       50.73005796        1.26548133
       97.36262       47.01930098        1.12805500
       97.46231       48.42455557        1.05323684
       97.56201       52.22940406        1.39180680
       97.66170       51.41820979        1.24032149
       97.76139       49.46835477        1.10516960
       97.86109       54.83148211        1.05232599
       97.96078       54.69722938        1.07399093
       98.06047       55.56590054        1.50359811
       98.16017       54.24293065        1.32057348
       98.25986       58.39588036        1.30897052
       98.35956       58.76056004        1.23965435
       98.45925       62.66064746        1.19503527
       98.55894       62.42904466        1.55597522
       98.65864       65.72400014        1.36998312
       98.75833       67.63493470        1.29862703
       98.85802       68.91588194        1.22403242
       98.95772       72.68911151        1.24886904
       99.05741       75.00252623        1.76125218
       99.15710       74.67473971        1.51134049
       99.25680       78.72049762        1.50355407
       99.35649       77.32909891        1.41923735
       99.45618       81.60787013        1.35890245
       99.55588       85.22141237        1.85574258
       99.65557       87.75873880        1.55372733
       99.75526       88.48510833        1.46230946
       99.85496       86.94889235        1.37958418
       99.95465       84.75573749        1.33524703
      100.05434       88.96671560        1.94913404
      100.15404       85.91199111        1.61313832
      100.25373       87.80162237        1.61135905
      100.35342       86.31884267        1.59136750
      100.45312       86.19674179        1.45109144
      100.55281       83.34242128        1.87386749
      100.65250       84.45238801        1.53675787
      100.75220       80.43340376        1.38899232
      100.85189       80.46053865        1.32741066
      100.95158       82.12395393        1.30530758
      101.05128       80.57633200        1.84325886
      101.15097       77.71746141        1.49599259
      101.25066       76.45230246        1.46591279
      101.35036       76.98402332        1.48378136
      101.45005       75.73202705        1.38384094
      101.54974       74.56906402        1.71026511
      101.64944       74.81243686        1.39765041
      101.74913       73.93114417        1.30906852
      101.84882       76.60045844        1.29719540
      101.94852       75.61595027        1.35756514
      102.04821       78.35821369        1.66469149
      102.14791       77.77822324        1.49467593
      102.24760       77.90017163        1.48322129
      102.34729       80.93836799        1.50585915
      102.44699       78.86151042        1.51214641
      102.54668       81.89725712        1.61714996
      102.64637       81.37336552        1.43965959
      102.74607       86.00450496        1.40979115
      102.84576       86.95889099        1.39072030
      102.94545       85.72110973        1.57257916
      103.04515       83.44999806        1.64244073
      103.14484       86.55473772        1.56299732
      103.24453       83.33301088        1.50980091
      103.34423       84.35554348        1.50679341
      103.44392       87.74393246        1.66485924
      103.54361       87.45284323        1.61462144
      103.64331       83.02192237        1.43179534
      103.74300       87.18239269        1.39974705
      103.84269       88.20447849        1.38360580
      103.94239       86.72696670        1.64863593
      104.04208       83.85247496        1.56813885
      104.14177       81.73533264        1.50616357
      104.24147       86.50415574        1.54895060
      104.34116       83.25144720        1.52880913
      104.44085       84.87653739        1.75332136
      104.54055       80.52482105        1.54597379
      104.64024       77.15788679        1.42233298
      104.73993       76.09376230        1.34783852
      104.83963       74.29246282        1.28301363
      104.93932       71.97644947        1.53083033
      105.03901       70.00967484        1.42247930
      105.13871       71.59679680        1.38519064
      105.23840       66.90347548        1.33803017
      105.33809       68.37159621        1.36068633
      105.43779       70.98531371        1.61333997
      105.53748       65.10010472        1.38526689
      105.63717       67.15900829        1.28977599
      105.73687       63.94744125        1.19761581
      105.83656       60.82996417        1.13805804
      105.93626       61.80329477        1.45374535
      106.03595       59.39086192        1.29148808
      106.13564       58.81666992        1.24217098
      106.23534       57.88755672        1.24745499
      106.33503       56.53110391        1.24514707
      106.43472       54.41614091        1.44414173
      106.53442       54.83990270        1.26102169
      106.63411       53.39365901        1.13025022
      106.73380       53.08818791        1.07413752
      106.83350       55.21531282        1.07917155
      106.93319       56.66020318        1.41720715
      107.03288       56.60402429        1.25542454
      107.13258       57.56041637        1.22885638
      107.23227       58.97776207        1.26200956
      107.33196       57.65220386        1.24426393
      107.43166       55.56346556        1.46759641
      107.53135       58.82855883        1.30306337
      107.63104       58.18979480        1.18003362
      107.73074       59.25850274        1.14252911
      107.83043       61.25852823        1.14704662
      107.93012       61.49049599        1.52027358
      108.02982       61.17789168        1.32723233
      108.12951       63.43237723        1.28529098
      108.22920       64.31534979        1.27349322
      108.32890       64.87184111        1.26682180
      108.42859       64.72498361        1.60596437
      108.52828       68.01065024        1.39656656
      108.62798       68.66550627        1.27245655
      108.72767       65.62622040        1.19388372
      108.82736       68.11502029        1.24322037
      108.92706       68.90046156        1.58362536
      109.02675       64.78110901        1.34315906
      109.12644       63.19334054        1.29470416
      109.22614       69.29757506        1.35715307
      109.32583       69.19613926        1.47778680
      109.42552       65.67169101        1.51838358
      109.52522       63.22293990        1.34398200
      109.62491       61.96626800        1.26552912
      109.72461       62.00024093        1.21025092
      109.82430       60.64199957        1.11802845
      109.92399       58.59146961        1.42875384
      110.02369       60.06967349        1.26692095
      110.12338       60.63198754        1.26456846
      110.22307       59.68120087        1.24518319
      110.32277       55.88954123        1.23031558
      110.42246       57.96799399        1.52359651
      110.52215       54.96382065        1.25641593
      110.62185       57.24814406        1.20857197
      110.72154       55.17573336        1.10686210
      110.82123       55.78718618        1.14946672
      110.92093       55.41767077        1.33618850
      111.02062       56.49825828        1.24646781
      111.12031       56.76716330        1.25877155
      111.22001       57.13827444        1.23923772
      111.31970       58.86627908        1.36518377
      111.41939       58.19487694        1.40453639
      111.51909       57.44906667        1.26621932
      111.61878       60.39633370        1.22314157
      111.71847       60.09991716        1.13518537
      111.81817       64.53518796        1.27692656
      111.91786       67.73976722        1.37692212
      112.01755       69.19108565        1.35888178
      112.11725       69.79327242        1.37514819
      112.21694       69.99034736        1.37091344
      112.31663       72.67591323        1.53953393
      112.41633       78.00294191        1.56716338
      112.51602       77.08935510        1.43464122
      112.61571       80.21226794        1.39613549
      112.71541       81.66699642        1.32764626
      112.81510       87.70657804        1.54304460
      112.91479       84.61544282        1.54371127
      113.01449       88.49746210        1.54617997
      113.11418       89.68711703        1.55140019
      113.21387       88.69604403        1.53573278
      113.31357       88.08996705        1.69967654
      113.41326       90.42557519        1.63669089
      113.51296       92.16037471        1.55434651
      113.61265       93.36893769        1.50965447
      113.71234       94.38109928        1.44982686
      113.81204       92.61419654        1.64525233
      113.91173       91.04171115        1.58060098
      114.01142       88.98630191        1.54680534
      114.11112       85.91634154        1.51891948
      114.21081       88.08686289        1.54922871
      114.31050       89.53773235        1.77138666
      114.41020       88.41077374        1.62646117
      114.50989       85.17125355        1.49430768
      114.60958       84.09496156        1.43684454
      114.70928       86.42270730        1.40496945
      114.80897       84.30952304        1.57377509
      114.90866       85.50540994        1.49494167
      115.00836       83.72026272        1.47224742
      115.10805       83.53388941        1.47860817
      115.20774       86.98181672        1.53183366
      115.30744       88.24227943        1.77160155
      115.40713       87.88347394        1.60135877
      115.50682       89.55504333        1.52620570
      115.60652       89.69846404        1.47209860
      115.70621       88.93478413        1.40871937
      115.80590       93.19439191        1.68253259
      115.90560       92.66614123        1.52063489
      116.00529       93.34915636        1.54329482
      116.10498       95.20923039        1.57498288
      116.20468       98.13345353        1.63586647
      116.30437      101.59200586        1.98435977
      116.40406      100.06982633        1.71520553
      116.50376      102.07884534        1.63716511
      116.60345      103.36117502        1.58146526
      116.70314      108.67539784        1.57270949
      116.80284      114.12644221        1.91533996
      116.90253      117.24726518        1.74653443
      117.00222      118.59104456        1.74270327
      117.10192      123.39187632        1.82556225
      117.20161      127.94140487        1.88184211
      117.30131      127.37143346        2.24678608
      117.40100      131.63428739        1.92051070
      117.50069      136.94282179        1.86078649
      117.60039      141.64742046        1.81140837
      117.70008      147.29194109        1.78982791
      117.79977      155.07715015        2.25107688
      117.89947      152.26880394        1.93893719
      117.99916      154.83595751        1.97870706
      118.09885      160.76859072        2.05448828
      118.19855      161.35074788        2.15578193
      118.29824      164.96977494        2.38996243
      118.39793      173.96382956        2.22896659
      118.49763      173.88391189        2.10283868
      118.59732      177.79648181        2.05324217
      118.69701      181.47399220        2.16123260
      118.79671      175.28402835        2.29299018
      118.89640      177.01659631        2.14854921
      118.99609      178.18648422        2.15341883
      119.09579      177.40043551        2.17364869
      119.19548      180.88098979        2.39853964
      119.29517      179.80411438        2.48437903
      119.39487      174.03822410        2.24643435
      119.49456      179.27646490        2.14897887
      119.59425      171.33928041        2.03971036
      119.69395      165.65903598        2.11552643
      119.79364      160.14544424        2.10171746
      119.89333      154.97986575        2.00064729
      119.99303      155.28660479        1.95529727
      120.09272      149.63499417        1.96274288
      120.19241      148.36085301        2.19665083
      120.29211      142.28445375        2.12880953
      120.39180      138.02110902        2.00001908
      120.49149      135.32283337        1.84167207
      120.59119      131.20031610        1.75985188
      120.69088      124.60048504        1.84579817
      120.79057      122.91796312        1.79383169
      120.89027      122.15248925        1.75558515
      120.98996      120.03381489        1.72679079
      121.08966      123.75514874        1.76670994
      121.18935      119.27492309        1.98780029
      121.28904      118.15241666        1.92819518
      121.38874      118.38563737        1.82519922
      121.48843      114.92958562        1.69836071
      121.58812      115.73488314        1.62551885
      121.68782      116.34237035        1.80555750
      121.78751      115.92434809        1.71740327
      121.88720      114.53803086        1.68519530
      121.98690      113.27125121        1.68833184
      122.08659      111.42522993        1.70794087
      122.18628      112.53517122        1.99123365
      122.28598      112.96441404        1.87613126
      122.38567      107.71835192        1.75429379
      122.48536      109.08026516        1.66998227
      122.58506      109.68246389        1.58604258
      122.68475      107.12318760        1.77602085
      122.78444      106.22565026        1.66524637
      122.88414      107.18970561        1.65864228
      122.98383      103.41217925        1.66231438
      123.08352      104.32751283        1.65543118
      123.18322      105.51498683        1.94179475
      123.28291      101.96761707        1.73465961
      123.38260       99.62137887        1.65506547
      123.48230      103.10783189        1.62304476
      123.58199       99.49008315        1.48997567
      123.68168       98.74662775        1.69380802
      123.78138       94.01992683        1.49089199
      123.88107       94.58852575        1.46084748
      123.98076       89.51669735        1.44717386
      124.08046       90.06004505        1.43629278
      124.18015       88.98924710        1.61593027
      124.27984       85.59518083        1.41972105
      124.37954       85.47646475        1.33875919
      124.47923       84.89381572        1.30247906
      124.57893       80.24969654        1.34894824
