        5.04651       56.92196596        2.57263469
        5.14621       51.06315875        2.34783584
        5.24590       49.89094073        2.28735617
        5.34559       57.88639253        2.26037676
        5.44529       50.32082440        2.29215159
        5.54498       53.16083541        1.98196820
        5.64467       50.72190899        1.91888375
        5.74437       51.47354794        1.74498591
        5.84406       48.96653631        1.72222773
        5.94375       48.54732327        1.71251590
        6.04345       48.76151849        1.66770961
        6.14314       51.19077252        1.56468325
        6.24283       49.43933278        1.58834493
        6.34253       50.25857163        1.52749795
        6.44222       51.76491540        1.63241231
        6.54191       49.87470107        1.51786135
        6.64161       47.76207600        1.40703979
        6.74130       50.79129127        1.45698954
        6.84099       50.41191643        1.44100937
        6.94069       49.65150636        1.45159554
        7.04038       47.88457297        1.31578783
        7.14007       48.15934898        1.31683452
        7.23977       46.26874203        1.26807682
        7.33946       48.43335354        1.31736040
        7.43915       48.79794588        1.30507172
        7.53885       47.68721437        1.26628004
        7.63854       47.52114713        1.20816571
        7.73823       48.55208494        1.26809120
        7.83793       47.66553217        1.21585327
        7.93762       48.63977044        1.28125000
        8.03732       47.25765072        1.13256035
        8.13701       47.83601731        1.13434933
        8.23670       48.20325760        1.15477780
        8.33640       46.65655738        1.13635011
        8.43609       49.27648525        1.22101951
        8.53578       46.90364553        1.10949503
        8.63548       47.97650360        1.10925709
        8.73517       48.32393202        1.09206141
        8.83486       47.99257038        1.09094835
        8.93456       46.98746160        1.07388182
        9.03425       47.78481052        1.05127249
        9.13394       47.32973092        1.04820758
        9.23364       46.47125339        1.05379140
        9.33333       48.99833230        1.10419370
        9.43302       47.65499313        1.08930583
        9.53272       46.84922581        1.04353739
        9.63241       47.29107708        1.07809824
        9.73210       48.25408257        1.08687378
        9.83180       47.83963109        1.12762421
        9.93149       47.12357716        1.11111440
       10.03118       47.28049774        1.07088885
       10.13088       48.77953760        1.06172459
       10.23057       48.23052621        1.10554593
       10.33026       49.53187291        1.15813614
       10.42996       49.38425237        1.14055867
       10.52965       47.80882904        1.08675558
       10.62934       47.96570626        1.09115844
       10.72904       47.55400450        1.10251763
       10.82873       47.78508062        1.09963277
       10.92842       49.31569353        1.13589128
       11.02812       47.89637766        1.06643643
       11.12781       50.27057666        1.13183247
       11.22750       49.76723315        1.13735133
       11.32720       51.58117562        1.18911372
       11.42689       52.02358433        1.15278769
       11.52658       52.35258035        1.14265824
       11.62628       56.27853107        1.19774849
       11.72597       56.70436562        1.22782573
       11.82567       59.61299887        1.29406307
       11.92536       60.94738463        1.22454517
       12.02505       66.41405901        1.28448253
       12.12475       71.70781523        1.33372741
       12.22444       80.66294068        1.50041747
       12.32413       90.42179037        1.61328376
       12.42383       96.41128431        1.58136904
       12.52352      112.46685674        1.69812071
       12.62321      133.07970157        1.90054849
       12.72291      154.08255638        1.99080582
       12.82260      176.31884166        2.31583182
       12.92229      198.83209726        2.23433571
       13.02199      229.30055869        2.38165220
       13.12168      253.18016295        2.54655572
       13.22137      283.29668227        2.78204771
       13.32107      311.36750844        3.01130727
       13.42076      335.41508879        3.00893234
       13.52045      357.40850417        3.14405017
       13.62015      359.07847714        3.05385449
       13.71984      350.42928152        3.14419287
       13.81953      321.13510683        3.06000173
       13.91923      277.67551574        2.67153326
       14.01892      224.95122767        2.34029563
       14.11861      169.21223096        2.11650612
       14.21831      134.58148305        1.88896200
       14.31800      109.27854508        1.79159437
       14.41769       85.70329829        1.52748464
       14.51739       70.36990437        1.35004434
       14.61708       61.92247804        1.26945471
       14.71677       52.42058276        1.18677547
       14.81647       52.70529126        1.24667146
       14.91616       50.58466272        1.12309455
       15.01585       49.42861482        1.13016207
       15.11555       47.33592836        1.11871655
       15.21524       49.18069153        1.17533828
       15.31493       46.70485783        1.17289032
       15.41463       47.50096282        1.14529395
       15.51432       48.04075810        1.11611659
       15.61402       48.24274740        1.14679064
       15.71371       48.26956504        1.13923105
       15.81340       46.38159131        1.16164830
       15.91310       49.17890989        1.16237651
       16.01279       46.50618578        1.08219651
       16.11248       46.49594623        1.11113489
       16.21218       46.15781202        1.13775351
       16.31187       47.04689982        1.15150363
       16.41156       48.41616218        1.14644412
       16.51126       47.37220419        1.15314886
       16.61095       50.21124389        1.14484708
       16.71064       48.78154287        1.16404818
       16.81034       50.87066667        1.19239780
       16.91003       51.29802836        1.16288127
       17.00972       54.94094899        1.15546691
       17.10942       56.31119683        1.23644874
       17.20911       63.54747113        1.32541438
       17.30880       64.68796264        1.34889552
       17.40850       67.07807566        1.37335124
       17.50819       73.42576934        1.39548724
       17.60788       75.02160229        1.45443571
       17.70758       72.16578039        1.43221678
       17.80727       74.22469414        1.47054370
       17.90696       74.76031234        1.37990961
       18.00666       67.73514477        1.33621807
       18.10635       62.48196505        1.24807534
       18.20604       60.21704826        1.34403304
       18.30574       58.89676499        1.26678296
       18.40543       56.00464454        1.20460738
       18.50512       54.92977540        1.23059829
       18.60482       54.51960676        1.20674995
       18.70451       51.59022440        1.24038462
       18.80420       49.53542748        1.14172985
       18.90390       51.02549192        1.14646483
       19.00359       48.50637206        1.08849020
       19.10328       49.09429660        1.15859211
       19.20298       47.62270365        1.17654147
       19.30267       47.20920186        1.12492430
       19.40237       46.08441364        1.09881991
       19.50206       45.44443932        1.11857227
       19.60175       45.75847436        1.10985680
       19.70145       45.62602051        1.16209691
       19.80114       48.14500943        1.13229634
       19.90083       44.21293052        1.04825879
       20.00053       46.53517457        1.09460764
       20.10022       45.55466039        1.09102030
       20.19991       47.49795435        1.19112280
       20.29961       48.31289686        1.13826858
       20.39930       49.29335180        1.18453455
       20.49899       51.68880442        1.19200254
       20.59869       51.64017988        1.21322362
       20.69838       51.33075412        1.25417433
       20.79807       52.82533641        1.21358537
       20.89777       53.96508816        1.19890597
       20.99746       56.59454060        1.24008942
       21.09715       56.66974764        1.30708065
       21.19685       55.54620846        1.28726289
       21.29654       60.01885970        1.30550057
       21.39623       57.54803244        1.27830182
       21.49593       54.28993199        1.22370261
       21.59562       54.66586246        1.25751766
       21.69531       52.10366160        1.27684880
       21.79501       49.65650406        1.14020383
       21.89470       47.69619748        1.09225075
       21.99439       45.92135831        1.11710534
       22.09409       46.98960222        1.13286674
       22.19378       46.05288535        1.19100277
       22.29347       45.90018992        1.10738731
       22.39317       44.18310530        1.11455521
       22.49286       45.82489532        1.13423246
       22.59255       48.15264175        1.17645076
       22.69225       49.08861939        1.25177753
       22.79194       48.56917683        1.11822845
       22.89163       53.70091960        1.15303927
       22.99133       54.00815698        1.18841212
       23.09102       61.41705723        1.31649596
       23.19072       64.24727295        1.34979814
       23.29041       65.22031691        1.34309429
       23.39010       65.32375697        1.35824549
       23.48980       64.51258033        1.35464776
       23.58949       63.07224589        1.35733334
       23.68918       59.64250501        1.38780530
       23.78888       57.13650895        1.21044225
       23.88857       49.99032821        1.14674572
       23.98826       49.08092402        1.16161117
       24.08796       48.44288197        1.13152555
       24.18765       45.94279653        1.18063310
       24.28734       43.41506235        1.09262062
       24.38704       45.64007462        1.13908201
       24.48673       43.86477998        1.11264527
       24.58642       45.66261734        1.17285423
       24.68612       43.95366007        1.14910788
       24.78581       44.40291682        1.06469921
       24.88550       45.09359040        1.07253648
       24.98520       45.01265831        1.11120806
       25.08489       46.69104746        1.15440108
       25.18458       46.33505450        1.17413409
       25.28428       47.67881810        1.14800158
       25.38397       50.46783653        1.17547937
       25.48366       51.71175133        1.19704824
       25.58336       54.55783444        1.28168217
       25.68305       59.57708660        1.31380147
       25.78274       70.75375007        1.35173879
       25.88244       79.82903798        1.47231510
       25.98213      103.21296871        1.68873927
       26.08182      130.27196465        1.94814862
       26.18152      152.71250865        2.16108424
       26.28121      179.41809181        2.21683290
       26.38090      188.72752022        2.29288156
       26.48060      198.20704549        2.41528730
       26.58029      188.41102179        2.45625074
       26.67998      169.84430635        2.20200756
       26.77968      144.80430483        2.00831623
       26.87937      114.54681515        1.75965989
       26.97907       91.86646526        1.56204605
       27.07876       79.10519709        1.56035339
       27.17845       75.06711008        1.45245958
       27.27815       78.33852069        1.44915966
       27.37784       84.20146122        1.56123083
       27.47753       84.76200438        1.54329124
       27.57723       86.69100318        1.63508003
       27.67692       85.87479715        1.58841654
       27.77661       75.74280485        1.42339914
       27.87631       70.87699275        1.35391958
       27.97600       61.70422568        1.29143659
       28.07569       54.96771385        1.28982754
       28.17539       51.67474029        1.19712878
       28.27508       50.68763421        1.18613749
       28.37477       48.77704632        1.19118447
       28.47447       48.26591769        1.17565138
       28.57416       49.33041772        1.28500868
       28.67385       49.61954048        1.14660294
       28.77355       53.93294715        1.17400193
       28.87324       57.16626388        1.24100661
       28.97293       57.41367443        1.24659845
       29.07263       55.89931592        1.34074196
       29.17232       57.28387004        1.23866507
       29.27201       55.49715828        1.24164700
       29.37171       52.64549993        1.24392789
       29.47140       52.00666976        1.22206931
       29.57109       49.18902557        1.26017136
       29.67079       47.25126189        1.12434933
       29.77048       46.90927911        1.12285920
       29.87017       45.49774624        1.08407764
       29.96987       48.20554971        1.17013385
       30.06956       47.59648473        1.19953027
       30.16925       47.29465997        1.12583271
       30.26895       47.39963553        1.13139120
       30.36864       49.22754538        1.17191755
       30.46833       52.18837969        1.21899823
       30.56803       52.07823032        1.28629746
       30.66772       57.03710169        1.25289635
       30.76742       59.66856712        1.25592153
       30.86711       60.87081738        1.29382933
       30.96680       64.99938943        1.34490111
       31.06650       63.55100227        1.39432884
       31.16619       62.94241338        1.30468833
       31.26588       59.43573121        1.26006016
       31.36558       55.25869890        1.23071181
       31.46527       56.42423952        1.29405982
       31.56496       60.27934398        1.35919686
       31.66466       63.32202956        1.30291585
       31.76435       69.67064601        1.36551610
       31.86404       76.83613050        1.41544245
       31.96374       87.28967059        1.54413939
       32.06343       86.87089020        1.59405343
       32.16312       90.69053002        1.53086536
       32.26282       85.32461844        1.52094395
       32.36251       76.35667475        1.49597747
       32.46220       73.00668103        1.48893377
       32.56190       68.86951505        1.47162313
       32.66159       65.84266318        1.36634811
       32.76128       63.56814212        1.31232574
       32.86098       66.13992951        1.35883876
       32.96067       61.43114331        1.32576396
       33.06036       59.85227203        1.33242130
       33.16006       57.99227755        1.23508614
       33.25975       56.68553158        1.26070364
       33.35944       56.55848384        1.26610905
       33.45914       56.13557410        1.30932505
       33.55883       57.29425113        1.32591708
       33.65852       58.74578491        1.25201689
       33.75822       65.97898484        1.32484431
       33.85791       72.11761201        1.39094531
       33.95760       80.87650750        1.51680692
       34.05730       89.33876951        1.57895112
       34.15699      102.16592527        1.66209546
       34.25668      122.00285674        1.81072436
       34.35638      146.51415885        2.03635850
       34.45607      188.22971451        2.43259650
       34.55577      224.58473576        2.53260370
       34.65546      293.80377581        2.78032432
       34.75515      370.73476815        3.18513389
       34.85485      424.51151930        3.38343983
       34.95454      450.03099249        3.59406195
       35.05423      429.35825099        3.62929598
       35.15393      385.31391362        3.22756888
       35.25362      311.33249802        2.94435618
       35.35331      243.74611218        2.67171798
       35.45301      179.29966769        2.38927394
       35.55270      139.29026410        2.04976429
       35.65239      109.20039460        1.75218736
       35.75209       85.73856489        1.54046924
       35.85178       79.71707275        1.48327036
       35.95147       72.57837626        1.44834376
       36.05117       68.73356171        1.38031629
       36.15086       66.63274629        1.30672001
       36.25055       63.25020771        1.32998047
       36.35025       62.11011605        1.34371351
       36.44994       60.11133636        1.34825626
       36.54963       58.52351060        1.27699539
       36.64933       55.59836820        1.22597586
       36.74902       56.18212409        1.24530002
       36.84871       54.16578907        1.21384239
       36.94841       51.56788696        1.28071420
       37.04810       52.44180672        1.13883098
       37.14779       50.54030518        1.14084269
       37.24749       48.12943815        1.14417187
       37.34718       48.58061895        1.17886461
       37.44687       47.52478982        1.25245073
       37.54657       49.22322990        1.16372722
       37.64626       46.84418894        1.13080877
       37.74595       46.50365379        1.10906141
       37.84565       46.83290108        1.17764768
       37.94534       47.41890701        1.20723203
       38.04503       47.37971613        1.09067506
       38.14473       46.82310734        1.09485354
       38.24442       49.17736237        1.14264208
       38.34412       49.39479232        1.19726354
       38.44381       48.35074563        1.28078948
       38.54350       49.32681650        1.15321676
       38.64320       50.00706760        1.15764968
       38.74289       50.31836536        1.17644796
       38.84258       54.17798792        1.22385176
       38.94228       55.10023075        1.29457970
       39.04197       59.94835241        1.21780581
       39.14166       65.86221130        1.32810000
       39.24136       69.03409573        1.35616610
       39.34105       69.93007130        1.41256227
       39.44074       71.98488824        1.56335275
       39.54044       70.94194392        1.38763184
       39.64013       67.24170054        1.34666507
       39.73982       64.38749793        1.32299442
       39.83952       62.88645045        1.29859442
       39.93921       59.82484505        1.34285693
       40.03890       58.17454766        1.21206560
       40.13860       56.87035070        1.19680133
       40.23829       56.93582493        1.23985817
       40.33798       57.02609703        1.27952522
       40.43768       55.95874941        1.32609440
       40.53737       55.89972524        1.23013450
       40.63706       54.35031794        1.23836639
       40.73676       60.68991534        1.30681163
       40.83645       60.68997549        1.31772080
       40.93614       63.80394356        1.37388687
       41.03584       66.64550772        1.32151222
       41.13553       75.28614932        1.40646516
       41.23522       92.03166959        1.59344362
       41.33492      113.68128691        1.85471751
       41.43461      135.40519165        2.08981668
       41.53430      161.20589260        2.13635258
       41.63400      189.74243635        2.36953258
       41.73369      206.15177476        2.41645557
       41.83338      211.28473640        2.51177992
       41.93308      215.79892301        2.51617611
       42.03277      220.06225156        2.32252944
       42.13247      240.26178838        2.55130512
       42.23216      289.23302635        2.80626713
       42.33185      357.41684094        3.35142062
       42.43155      421.20845001        3.58624520
       42.53124      488.57968060        3.74172674
       42.63093      534.03972940        3.92015879
       42.73063      556.55285925        4.02083260
       42.83032      537.63883122        4.02081532
       42.93001      496.46213514        3.71725790
       43.02971      424.55316124        3.24568010
       43.12940      336.51559968        2.94601987
       43.22909      252.00379250        2.67717160
       43.32879      192.18959831        2.46155176
       43.42848      143.68722921        2.08033379
       43.52817      107.44423769        1.72026237
       43.62787       85.57832851        1.52965010
       43.72756       70.99464269        1.42578390
       43.82725       64.31538545        1.41684237
       43.92695       62.32890255        1.26479871
       44.02664       56.80057936        1.20143363
       44.12633       57.39195496        1.25272869
       44.22603       55.09402940        1.27744844
       44.32572       53.86506932        1.33122320
       44.42541       53.39542953        1.26541445
       44.52511       54.93167103        1.24903420
       44.62480       54.32879535        1.25969362
       44.72449       57.37707893        1.25465348
       44.82419       61.47514313        1.45745188
       44.92388       66.51379974        1.26453267
       45.02357       78.49401040        1.38540682
       45.12327       88.76220521        1.51774015
       45.22296      107.27439933        1.71309935
       45.32265      125.51252640        2.05033988
       45.42235      141.81752919        1.98468741
       45.52204      174.03888914        2.17777706
       45.62174      205.52296649        2.41090266
       45.72143      224.75906866        2.52169930
       45.82112      235.61555727        2.82681766
       45.92082      247.80708019        2.46206707
       46.02051      241.67094569        2.48287950
       46.12020      231.81655698        2.43918833
       46.21990      220.39043452        2.49885813
       46.31959      196.84429207        2.54896802
       46.41928      175.26596243        2.22072638
       46.51898      147.74226041        2.04924539
       46.61867      114.23389703        1.79151943
       46.71836       92.86657332        1.65610419
       46.81806       82.11497895        1.61450205
       46.91775       66.59505569        1.26682540
       47.01744       60.64662183        1.23755800
       47.11714       63.73580509        1.29780067
       47.21683       65.31934684        1.35252413
       47.31652       75.85270761        1.59051678
       47.41622       88.09186622        1.61573364
       47.51591      103.17974754        1.75236774
       47.61560      116.31982598        1.84533100
       47.71530      133.16414410        1.99626319
       47.81499      144.10529261        2.12909018
       47.91468      165.82302557        1.99891913
       48.01438      173.40452948        2.04515214
       48.11407      183.25798945        2.18167275
       48.21376      181.85979422        2.26901553
       48.31346      174.11695051        2.29888230
       48.41315      158.01187283        2.04057280
       48.51284      144.93107924        2.01897844
       48.61254      120.14959749        1.82982087
       48.71223      103.11642798        1.72542341
       48.81192       86.97190083        1.58033467
       48.91162       72.47622014        1.29283173
       49.01131       64.61352685        1.26329184
       49.11100       54.57509943        1.20249459
       49.21070       52.25112590        1.23523110
       49.31039       52.71715397        1.27696704
       49.41009       51.24718251        1.18933990
       49.50978       51.10965654        1.21231493
       49.60947       49.27722476        1.19902052
       49.70917       48.41465189        1.23251139
       49.80886       47.21549235        1.18454025
       49.90855       49.54721928        1.10545396
       50.00825       49.37292269        1.12680887
       50.10794       50.04049955        1.16024559
       50.20763       52.37433533        1.24023558
       50.30733       53.85721294        1.31746355
       50.40702       55.06573627        1.24931090
       50.50671       55.69112781        1.26010255
       50.60641       57.44619826        1.28169625
       50.70610       56.29157562        1.30544416
       50.80579       58.97549460        1.31869457
       50.90549       56.43587156        1.16293037
       51.00518       54.79010490        1.15594038
       51.10487       54.67963895        1.19367613
       51.20457       53.83045567        1.26083130
       51.30426       55.03707437        1.26830605
       51.40395       56.33280291        1.23017477
       51.50365       57.13771305        1.25311779
       51.60334       58.88405454        1.29732676
       51.70303       60.71470649        1.39903011
       51.80273       58.72681464        1.26201702
       51.90242       61.72044791        1.20892177
       52.00211       61.31980068        1.21067291
       52.10181       63.16794362        1.26775568
       52.20150       65.82235968        1.42531030
       52.30119       63.09550142        1.34413012
       52.40089       64.06962007        1.33330289
       52.50058       61.10352831        1.32653454
       52.60027       61.55933361        1.34968063
       52.69997       59.60942093        1.45541461
       52.79966       60.82600431        1.23608872
       52.89935       66.05800490        1.24314339
       52.99905       73.80919599        1.33582937
       53.09874       85.75497856        1.48676677
       53.19844       97.32500660        1.81424517
       53.29813      113.10225655        1.73871384
       53.39782      125.37263290        1.89416698
       53.49752      134.45322108        1.97073687
       53.59721      141.21659768        2.01832749
       53.69690      147.10103776        2.26053590
       53.79660      156.37678862        1.95293318
       53.89629      154.10938539        1.91766399
       53.99598      146.00070638        1.91173036
       54.09568      134.85413399        1.91812655
       54.19537      125.45030354        2.01729016
       54.29506      109.39088187        1.72984671
       54.39476      101.12251081        1.67580052
       54.49445       97.33852778        1.64525135
       54.59414       88.96738672        1.59649101
       54.69384       89.84791987        1.71165084
       54.79353       86.49453119        1.44000830
       54.89322       84.30450563        1.41646116
       54.99292       83.09441636        1.44741037
       55.09261       73.29585006        1.41324448
       55.19230       69.03339965        1.47269843
       55.29200       67.05771767        1.35089271
       55.39169       62.24678760        1.34276118
       55.49138       58.65062975        1.29842129
       55.59108       57.49732814        1.32678142
       55.69077       57.57916622        1.36261167
       55.79046       52.95074770        1.14223567
       55.89016       55.24812571        1.16405838
       55.98985       57.83775615        1.19877125
       56.08954       60.14306870        1.26281047
       56.18924       62.95643954        1.39445922
       56.28893       71.73762711        1.36270191
       56.38862       81.17662269        1.49979628
       56.48832       95.34285598        1.65398727
       56.58801      109.29631828        1.82276373
       56.68770      112.10465183        1.90531442
       56.78740      117.38501186        1.66882780
       56.88709      111.89986669        1.64532188
       56.98679      107.68204184        1.61531622
       57.08648       98.41454477        1.63662974
       57.18617       85.95963104        1.58324961
       57.28587       77.48338986        1.40417639
       57.38556       66.13186435        1.38050615
       57.48525       60.70247071        1.34785868
       57.58495       58.71539503        1.35594975
       57.68464       53.65694835        1.30732248
       57.78433       52.68965733        1.13326071
       57.88403       51.29285019        1.13111839
       57.98372       53.75622869        1.17650245
       58.08341       50.47961267        1.23255198
       58.18311       50.83050699        1.26521003
       58.28280       51.52695519        1.19985291
       58.38249       54.08101503        1.28454538
       58.48219       51.75416720        1.28363692
       58.58188       52.00651034        1.30084662
       58.68157       54.93815537        1.31029022
       58.78127       53.00043749        1.12564380
       58.88096       54.40312666        1.12367050
       58.98065       57.52413483        1.19958020
       59.08035       55.96051056        1.26242584
       59.18004       57.55750448        1.29882616
       59.27973       61.17805686        1.26353160
       59.37943       63.68262296        1.33173345
       59.47912       66.55225945        1.41732890
       59.57881       71.39349760        1.53805080
       59.67851       75.88193213        1.47850222
       59.77820       82.86445729        1.42058260
       59.87789       92.47961928        1.49579017
       59.97759      100.33869727        1.63016134
       60.07728      105.88568402        1.81371754
       60.17697      105.84312295        1.72739883
       60.27667      109.78225245        1.71062726
       60.37636      105.66421591        1.71054352
       60.47605      103.99468317        1.77026893
       60.57575       97.82720461        1.88137174
       60.67544       94.42748943        1.58790292
       60.77514       85.63676848        1.43725987
       60.87483       77.08923396        1.33688588
       60.97452       69.43485557        1.33636017
       61.07422       68.27251704        1.48859885
       61.17391       68.27044974        1.28946481
       61.27360       64.45670248        1.29724887
       61.37330       68.34072485        1.38549070
       61.47299       67.45282451        1.43690884
       61.57268       68.84458290        1.65087285
       61.67238       69.77146572        1.35456931
       61.77207       68.61688531        1.30823668
       61.87176       70.83319629        1.31448974
       61.97146       68.78524601        1.34475115
       62.07115       70.87411108        1.54608737
       62.17084       67.60972543        1.32284961
       62.27054       66.81579702        1.37115550
       62.37023       65.67807414        1.41353138
       62.46992       64.57476976        1.44959063
       62.56962       64.68795560        1.62953958
       62.66931       66.64776944        1.33257257
       62.76900       72.81943986        1.35791230
       62.86870       80.70493440        1.39868596
       62.96839       88.57370511        1.51236611
       63.06808       97.87742290        1.76970359
       63.16778      104.25540026        1.62156802
       63.26747      109.98833604        1.72379813
       63.36716      116.53108663        1.84166302
       63.46686      120.82221760        1.93169231
       63.56655      126.92194625        2.10367901
       63.66624      137.61602174        1.86238614
       63.76594      151.77812347        1.90060192
       63.86563      166.80328764        1.98710573
       63.96532      174.26751045        2.12569588
       64.06502      176.73058775        2.29342564
       64.16471      174.05069418        2.10506696
       64.26440      161.50111080        2.11022020
       64.36410      148.42392678        2.06322927
       64.46379      130.15224501        2.04233219
       64.56349      117.42782517        1.97387968
       64.66318      100.76991228        1.59977361
       64.76287       84.98200042        1.45042879
       64.86257       72.87768141        1.34070500
       64.96226       63.81967608        1.31384063
       65.06195       58.27048248        1.35728245
       65.16165       57.03941210        1.21134084
       65.26134       54.33976898        1.20989678
       65.36103       53.38857104        1.25136195
       65.46073       53.64641925        1.29560549
       65.56042       54.21416736        1.36034939
       65.66011       54.70580863        1.19155412
       65.75981       56.98965150        1.20410173
       65.85950       59.85349612        1.22622839
       65.95919       60.65201086        1.29216246
       66.05889       64.59961146        1.37952847
       66.15858       71.90849117        1.38435481
       66.25827       78.70303336        1.49804355
       66.35797       85.42855245        1.62607754
       66.45766       97.88847742        1.85000972
       66.55735      112.19627744        1.98073332
       66.65705      128.50771270        1.88107515
       66.75674      144.71072335        1.94586108
       66.85643      155.46848701        1.99433186
       66.95613      162.99574120        2.12348497
       67.05582      169.84120422        2.18426253
       67.15551      167.27723824        2.06264229
       67.25521      164.38224686        2.14614407
       67.35490      151.13127191        2.16571713
       67.45459      132.48241279        2.13756587
       67.55429      115.98662325        1.91564805
       67.65398       98.51625950        1.58195906
       67.75367       86.27010947        1.46792628
       67.85337       79.83693745        1.42935138
       67.95306       74.99557448        1.48116250
       68.05275       77.67790205        1.42749525
       68.15245       80.74041912        1.44292268
       68.25214       87.89609252        1.59819151
       68.35184       99.28998571        1.77080394
       68.45153      101.76350820        1.97352720
       68.55122      106.87586581        1.74245238
       68.65092      121.19823086        1.73018564
       68.75061      125.14189197        1.77634358
       68.85030      126.61134214        1.82117091
       68.95000      125.70405402        2.05731179
       69.04969      122.55194831        1.71540812
       69.14938      115.78066358        1.71429475
       69.24908       99.06930519        1.69273322
       69.34877       89.45514305        1.66328861
       69.44846       84.13725801        1.87091909
       69.54816       75.12502948        1.37808216
       69.64785       65.61589538        1.26947867
       69.74754       59.27770343        1.21854347
       69.84724       55.32368986        1.20776942
       69.94693       53.59834411        1.34155733
       70.04662       48.01200177        1.04394815
       70.14632       45.78983830        1.06006255
       70.24601       47.75442671        1.15921747
       70.34570       47.40076290        1.22210872
       70.44540       49.02338174        1.46445510
       70.54509       47.40955533        1.12718931
       70.64478       48.48465317        1.13832017
       70.74448       50.06800881        1.17515821
       70.84417       51.06632638        1.23158312
       70.94386       50.89596977        1.34966794
       71.04356       52.85359758        1.13820122
       71.14325       52.35332357        1.17716066
       71.24294       51.89595128        1.23312083
       71.34264       53.68348196        1.32994382
       71.44233       55.17978420        1.50469347
       71.54202       55.62406959        1.22994970
       71.64172       54.16328503        1.18055440
       71.74141       53.28837120        1.14969616
       71.84110       53.01966906        1.18710090
       71.94080       52.15019454        1.28287972
       72.04049       50.66005970        1.07014913
       72.14019       54.26468036        1.15412568
       72.23988       52.90259209        1.19226549
       72.33957       50.81280449        1.30510279
       72.43927       54.85255916        1.49288628
       72.53896       50.85126369        1.15232585
       72.63865       52.32500918        1.14261058
       72.73835       56.46678405        1.16103504
       72.83804       56.18344829        1.22291828
       72.93773       58.38811654        1.32435219
       73.03743       60.17712332        1.16710272
       73.13712       62.66369281        1.25607906
       73.23681       63.91424826        1.33278566
       73.33651       63.41032527        1.46071526
       73.43620       63.99751456        1.58950341
       73.53589       63.96854992        1.28194401
       73.63559       64.48265137        1.26689686
       73.73528       66.80488996        1.28375366
       73.83497       64.02643752        1.33225726
       73.93467       65.16873125        1.41538660
       74.03436       68.39340754        1.28337518
       74.13405       62.83593209        1.28217741
       74.23375       62.95514290        1.33684381
       74.33344       65.69079720        1.50346153
       74.43313       65.07498675        1.55272074
       74.53283       61.68832015        1.28431170
       74.63252       65.07805855        1.30972061
       74.73221       68.65121676        1.33877967
       74.83191       74.92289087        1.48393593
       74.93160       76.66356907        1.51805752
       75.03129       78.21999578        1.36326624
       75.13099       86.09302644        1.48178383
       75.23068       92.23066981        1.60001447
       75.33037       96.67247212        1.80077485
       75.43007      105.42438451        1.90812173
       75.52976      111.77586359        1.70679787
       75.62945      121.48660286        1.77827187
       75.72915      132.14135894        1.84778856
       75.82884      139.60165436        2.04523047
       75.92854      136.60189971        1.89891642
       76.02823      148.39432828        1.85687524
       76.12792      150.99333578        1.95784324
       76.22762      153.67066835        2.08402997
       76.32731      154.49272658        2.36001885
       76.42700      151.48720810        2.20543245
       76.52670      146.00133446        1.99707985
       76.62639      134.66477092        1.89305438
       76.72608      125.86867687        1.79935822
       76.82578      121.87480323        2.03998158
       76.92547      118.24439916        1.60928797
       77.02516      117.18665160        1.66042326
       77.12486      124.32767545        1.79704010
       77.22455      126.79622600        1.93247334
       77.32424      129.44366654        2.39891579
       77.42394      136.82557813        1.96979106
       77.52363      133.73972828        1.88163818
       77.62332      142.16972148        1.93167182
       77.72302      144.51078747        1.95201184
       77.82271      150.62745000        2.33761713
       77.92240      152.73795492        1.80261948
       78.02210      154.96141079        1.95935560
       78.12179      148.76118572        2.04998224
       78.22148      140.05445136        2.10280399
       78.32118      137.66951789        2.41900682
       78.42087      129.02934651        1.84261242
       78.52056      118.70980176        1.82457457
       78.62026      113.02802118        1.76614993
       78.71995      101.77519764        1.68098070
       78.81964       99.35921119        1.85514901
       78.91934       89.32484713        1.36255905
       79.01903       80.39090534        1.41680085
       79.11872       71.95325009        1.39459718
       79.21842       69.24967995        1.45939430
       79.31811       65.18288783        1.59467890
       79.41780       64.16977367        1.28347754
       79.51750       64.91629354        1.31175233
       79.61719       63.31279849        1.29918911
       79.71689       64.90332025        1.36577990
       79.81658       63.66918067        1.43389578
       79.91627       63.40789673        1.21293552
       80.01597       64.05943778        1.25313878
       80.11566       63.11013557        1.30019886
       80.21535       64.14688343        1.40127151
       80.31505       63.82132310        1.66152340
       80.41474       67.52246997        1.31341029
       80.51443       68.56610635        1.31777163
       80.61413       69.39252823        1.36968537
       80.71382       77.85933164        1.50126902
       80.81351       84.77564560        1.76066428
       80.91321       88.96147188        1.33014588
       81.01290      104.18952263        1.55460244
       81.11259      119.83661940        1.80018062
       81.21229      135.42687729        2.07058977
       81.31198      150.37808761        2.43463853
       81.41167      174.99479756        2.05751585
       81.51137      192.30420484        2.21944454
       81.61106      213.74163154        2.44436236
       81.71075      225.99852951        2.60185546
       81.81045      238.08793469        2.82984689
       81.91014      257.14460382        2.26219968
       82.00983      276.27843389        2.50731357
       82.10953      285.46720764        2.85155482
       82.20922      290.72850096        3.20062079
       82.30891      295.94299491        3.38639774
       82.40861      304.88594792        2.79589892
       82.50830      297.64246135        2.75465435
       82.60799      297.10607928        2.96462170
       82.70769      296.72165749        3.22418456
       82.80738      296.09167304        3.07727313
       82.90707      286.93550874        2.45926996
       83.00677      274.83505707        2.56380314
       83.10646      261.76413544        2.94325814
       83.20615      255.38332890        3.23582346
       83.30585      243.48378451        2.99255591
       83.40554      216.91205614        2.34682648
       83.50524      200.77970255        2.20263335
       83.60493      180.35650687        2.29891757
       83.70462      167.27551557        2.49603672
       83.80432      149.45099247        2.06105598
       83.90401      126.64468512        1.59077199
       84.00370      107.75107678        1.52982478
       84.10340       88.95682213        1.66025258
       84.20309       87.67474342        2.00113834
       84.30278       77.60166883        1.53070863
       84.40248       69.96924546        1.28252761
       84.50217       65.93860975        1.22129548
       84.60186       64.80990803        1.36906760
       84.70156       68.02983846        1.83572028
       84.80125       64.10035716        1.24042951
       84.90094       65.05037038        1.12256471
       85.00064       63.10843917        1.13910457
       85.10033       64.26582342        1.36046314
       85.20002       61.12255377        2.27530253
       85.29972       65.33934163        1.24113164
       85.39941       66.25074516        1.27422673
       85.49910       67.76497948        1.25330021
       85.59880       67.32200586        1.40465545
       85.69849       68.19496897        2.53821903
       85.79818       66.88406276        1.18506760
       85.89788       62.22626302        1.11556487
       85.99757       65.12404448        1.17275107
       86.09726       65.81768323        1.35367628
       86.19696       67.07024179        2.62467941
       86.29665       64.85216140        1.22126586
       86.39634       62.59417507        1.22054261
       86.49604       61.96660249        1.19601643
       86.59573       58.50494724        1.23808255
       86.69542       57.89645206        2.57502778
       86.79512       54.52571469        1.03721169
       86.89481       54.51851441        1.02252784
       86.99451       52.65207959        1.04152496
       87.09420       51.37631552        1.14737295
       87.19389       54.69461025        2.80459951
       87.29359       53.24102753        1.12136589
       87.39328       53.88709466        1.14341715
       87.49297       49.89715705        1.06796349
       87.59267       50.38528742        1.09429654
       87.69236       53.07779106        3.36112696
       87.79205       49.25647126        1.00850192
       87.89175       50.71492591        1.01513711
       87.99144       51.22549525        1.06311736
       88.09113       48.20564518        1.09603660
       88.19083       41.48198552        5.37898937
       88.29052       48.84795490        1.11029202
       88.39021       50.44434818        1.13587338
       88.48991       48.64753950        1.07045851
       88.58960       49.41346403        1.04480352
       88.68929       47.00938354        7.89373207
       88.78899       50.94340717        1.02402910
       88.88868       49.89365173        0.99125323
       88.98837       49.32268797        1.02505829
       89.08807       48.58703951        1.04205445
       89.18776       53.35419992        8.88644616
       89.28745       50.49841114        1.07943515
       89.38715       53.17218943        1.11912592
       89.48684       54.74713193        1.11134264
       89.58653       58.14513538        1.12217691
       89.68623       46.45643228        8.12827089
       89.78592       57.84909985        1.08760219
       89.88561       60.68505712        1.09218040
       89.98531       64.67607563        1.15631125
       90.08500       68.92380878        1.23818421
       90.18469       70.58837861       10.45114767
       90.28439       76.00509212        1.32824626
       90.38408       81.49581718        1.39871294
       90.48377       85.97617950        1.40985755
       90.58347       93.36955913        1.44647094
       90.68316      103.40762477       11.86164631
       90.78286       92.78091122        1.38019095
       90.88255       94.61752081        1.35628113
       90.98224       96.86075931        1.41989478
       91.08194       99.29787520        1.48493993
       91.18163       97.12469403       11.71810383
       91.28132       97.65519159        1.51610306
       91.38102       97.96951486        1.55885828
       91.48071       97.53593904        1.51721622
       91.58040       91.41683738        1.42026395
       91.68010       94.79327339       10.94269650
       91.77979       84.31150908        1.30902313
       91.87948       81.77631017        1.26917511
       91.97918       78.47217618        1.29087382
       92.07887       76.92042548        1.33124956
       92.17856       74.11052366        9.93443159
       92.27826       75.76927865        1.36452911
       92.37795       73.86941395        1.37918262
       92.47764       72.95552517        1.30109284
       92.57734       76.51720203        1.29279869
       92.67703       70.36927438        8.04595677
       92.77672       78.38237368        1.26117265
       92.87642       82.81113257        1.27175520
       92.97611       89.10093600        1.37777861
       93.07580       93.03763705        1.60706701
       93.17550       89.43764838        2.96250330
       93.27519       90.98779369        1.46475500
       93.37488       93.96670733        1.44711717
       93.47458      100.66745028        1.51464990
       93.57427       99.10990734        1.73742923
       93.67396      106.34103703        2.43275275
       93.77366       97.60068437        1.44334322
       93.87335       98.48737499        1.38496658
       93.97304       97.64446685        1.43708179
       94.07274       88.83019026        1.77900777
       94.17243       91.55341183        2.06096022
       94.27212       88.81467966        1.51175697
       94.37182       88.94598030        1.47445206
       94.47151       87.23492363        1.39831730
       94.57121       85.90106316        1.83120056
       94.67090       84.14624239        1.83327674
       94.77059       81.86889177        1.40560810
       94.87029       77.95640581        1.24708851
       94.96998       71.68240319        1.21073991
       95.06967       66.61784717        1.34527836
       95.16937       64.82419490        1.81648264
       95.26906       63.86217640        1.39278231
       95.36875       62.14564438        1.24663387
       95.46845       61.97757932        1.19644331
       95.56814       59.09158083        1.34416750
       95.66783       56.32441043        1.47418561
       95.76753       57.92472560        1.23547042
       95.86722       55.27689758        1.02651763
       95.96691       54.29359467        1.05520850
       96.06661       53.19301424        1.33792150
       96.16630       52.99706837        1.42411675
       96.26599       52.75226790        1.27598129
       96.36569       51.43771513        1.13050403
       96.46538       50.17906250        1.07755734
       96.56507       48.68062437        1.30990952
       96.66477       45.03094272        1.22747555
       96.76446       48.93609332        1.14362558
       96.86415       46.63148978        0.96691624
       96.96385       47.77477159        1.01088238
       97.06354       46.60539238        1.35003172
       97.16323       48.24090871        1.31337399
       97.26293       49.52588198        1.25029669
       97.36262       50.10863972        1.16463037
       97.46231       47.46483059        1.04269390
       97.56201       50.23478972        1.36485189
       97.66170       52.63938149        1.25499559
       97.76139       51.16419062        1.12400059
       97.86109       53.51152945        1.03951588
       97.96078       55.41977758        1.08106978
       98.06047       54.80880171        1.49325336
       98.16017       55.49689336        1.33578590
       98.25986       56.80304552        1.29089984
       98.35956       59.03511480        1.24253717
       98.45925       62.11851389        1.18981069
       98.55894       64.50651141        1.58174042
       98.65864       63.94958020        1.35125492
       98.75833       66.06266736        1.28335044
       98.85802       71.82955928        1.24974593
       98.95772       72.60499342        1.24812053
       99.05741       72.22004750        1.72807393
       99.15710       72.84527352        1.49259006
       99.25680       75.56326437        1.47290460
       99.35649       79.72615658        1.44116243
       99.45618       80.67251495        1.35102419
       99.55588       83.91944134        1.84139575
       99.65557       85.09410001        1.52978721
       99.75526       86.27404283        1.44378617
       99.85496       86.26935482        1.37412562
       99.95465       87.61222094        1.35767358
      100.05434       88.90480993        1.94841725
      100.15404       86.20178708        1.61584473
      100.25373       90.34731384        1.63466920
      100.35342       86.59343896        1.59388403
      100.45312       85.91659752        1.44869168
      100.55281       86.83732256        1.91295492
      100.65250       81.95836955        1.51373694
      100.75220       79.79408791        1.38340572
      100.85189       81.32445763        1.33453498
      100.95158       79.23010629        1.28195038
      101.05128       77.23435173        1.80438475
      101.15097       76.02242497        1.47947441
      101.25066       76.66545017        1.46793998
      101.35036       76.17858799        1.47593120
      101.45005       76.26799629        1.38873087
      101.54974       77.60373704        1.74487416
      101.64944       73.39874189        1.38428883
      101.74913       77.00517341        1.33612757
      101.84882       75.96583145        1.29175906
      101.94852       74.90161415        1.35107978
      102.04821       82.14651969        1.70465415
      102.14791       80.95304801        1.52501975
      102.24760       81.36207645        1.51597826
      102.34729       83.64710158        1.53096862
      102.44699       82.07968356        1.54283906
      102.54668       83.81461820        1.63605209
      102.64637       84.82734790        1.47004864
      102.74607       85.24707718        1.40350745
      102.84576       87.23772495        1.39293732
      102.94545       86.30075986        1.57789149
      103.04515       88.41770534        1.69088607
      103.14484       86.87824471        1.56590576
      103.24453       85.21610618        1.52683846
      103.34423       85.94710334        1.52099984
      103.44392       85.84871998        1.64664247
      103.54361       83.52395162        1.57768989
      103.64331       85.54982397        1.45353353
      103.74300       84.48878948        1.37779927
      103.84269       86.22847449        1.36790079
      103.94239       88.38606072        1.66439824
      104.04208       82.78239284        1.55801479
      104.14177       82.72521975        1.51528265
      104.24147       82.34468943        1.51100441
      104.34116       82.38773736        1.52078501
      104.44085       81.33177657        1.71607419
      104.54055       80.30061276        1.54378067
      104.64024       76.90563539        1.41996845
      104.73993       76.07880577        1.34768160
      104.83963       74.54753687        1.28520317
      104.93932       72.17969302        1.53297409
      105.03901       72.70179450        1.44968275
      105.13871       71.52277849        1.38444643
      105.23840       69.63906918        1.36521861
      105.33809       70.33976115        1.38020320
      105.43779       69.77429417        1.59942252
      105.53748       66.95051379        1.40488313
      105.63717       65.09366906        1.26967421
      105.73687       63.71161507        1.19537447
      105.83656       57.87052805        1.10989382
      105.93626       59.71010155        1.42878460
      106.03595       59.20031283        1.28938322
      106.13564       55.47587326        1.20621431
      106.23534       56.81628515        1.23578991
      106.33503       56.12687888        1.24064783
      106.43472       55.63660325        1.46028377
      106.53442       52.27922627        1.23109609
      106.63411       51.10043492        1.10560324
      106.73380       51.23209120        1.05510556
      106.83350       53.76326030        1.06481372
      106.93319       55.45948659        1.40202631
      107.03288       55.42182511        1.24217168
      107.13258       56.35054276        1.21579975
      107.23227       57.91507262        1.25051927
      107.33196       57.55065295        1.24314122
      107.43166       54.13244152        1.44847576
      107.53135       56.09170986        1.27224646
      107.63104       57.93186300        1.17738395
      107.73074       59.96006270        1.14928051
      107.83043       61.21632208        1.14662948
      107.93012       64.74682555        1.56015993
      108.02982       63.95253241        1.35710464
      108.12951       62.40377398        1.27475877
      108.22920       65.34304742        1.28365129
      108.32890       66.49721730        1.28264461
      108.42859       68.86343888        1.65672294
      108.52828       66.16076030        1.37732835
      108.62798       70.09165056        1.28564460
      108.72767       67.97148421        1.21510806
      108.82736       67.38086739        1.23644868
      108.92706       68.27192477        1.57632294
      109.02675       66.76502808        1.36364223
      109.12644       67.81510102        1.34140860
      109.22614       65.01842745        1.31436196
      109.32583       68.67991500        1.47221141
      109.42552       67.96428968        1.54475702
      109.52522       66.16166467        1.37498066
      109.62491       66.15625976        1.30778497
      109.72461       64.67617655        1.23618695
      109.82430       64.77735658        1.15566851
      109.92399       60.82162825        1.45577977
      110.02369       59.35306290        1.25928732
      110.12338       60.52080342        1.26338125
      110.22307       59.15309428        1.23961685
      110.32277       57.27277922        1.24548608
      110.42246       59.38131312        1.54210763
      110.52215       56.74079957        1.27662170
      110.62185       56.85624578        1.20439029
      110.72154       55.84936561        1.11360513
      110.82123       54.16267187        1.13252213
      110.92093       56.86812481        1.35360695
      111.02062       56.76209181        1.24936435
      111.12031       55.31718246        1.24250603
      111.22001       55.93924772        1.22609288
      111.31970       57.58380813        1.35014601
      111.41939       56.73002038        1.38665053
      111.51909       57.57822115        1.26762525
      111.61878       58.25147309        1.20111456
      111.71847       61.62216484        1.14951314
      111.81817       65.25695351        1.28405730
      111.91786       65.98172266        1.35882905
      112.01755       67.99798509        1.34703455
      112.11725       72.18002553        1.39855662
      112.21694       70.24243735        1.37336806
      112.31663       75.48066079        1.56908713
      112.41633       74.98577415        1.53636529
      112.51602       77.21133977        1.43575671
      112.61571       80.17091662        1.39574896
      112.71541       83.31718738        1.34104679
      112.81510       87.67091590        1.54270177
      112.91479       87.47742653        1.56973123
      113.01449       87.82264723        1.54021005
      113.11418       90.62429011        1.55950860
      113.21387       89.69249906        1.54436217
      113.31357       91.30410248        1.73057174
      113.41326       92.13203359        1.65213202
      113.51296       92.41183129        1.55645191
      113.61265       93.22925914        1.50849089
      113.71234       91.73666471        1.42921351
      113.81204       90.57565760        1.62689953
      113.91173       89.65167236        1.56838392
      114.01142       89.03884383        1.54723755
      114.11112       87.31674090        1.53129672
      114.21081       85.69998832        1.52793989
      114.31050       89.51311707        1.77111045
      114.41020       88.93417585        1.63126978
      114.50989       84.28231188        1.48641648
      114.60958       83.42589770        1.43105846
      114.70928       82.04803968        1.36871371
      114.80897       80.21423684        1.53482866
      114.90866       80.08893706        1.44651642
      115.00836       80.25234561        1.44123161
      115.10805       82.72911098        1.47140082
      115.20774       83.40640760        1.49980519
      115.30744       81.62071051        1.70340983
      115.40713       84.07410421        1.56603103
      115.50682       85.93209473        1.49479902
      115.60652       89.47287799        1.47020879
      115.70621       86.74845555        1.39116461
      115.80590       87.56732551        1.63059507
      115.90560       93.06269449        1.52387952
      116.00529       93.20160539        1.54203951
      116.10498       99.46561879        1.61001561
      116.20468      100.91259739        1.65900137
      116.30437      101.17631955        1.98023216
      116.40406      100.56452593        1.71943953
      116.50376      102.61328158        1.64144716
      116.60345      105.68486724        1.59924547
      116.70314      111.42005056        1.59257083
      116.80284      117.05718373        1.93994215
      116.90253      123.31899294        1.79153628
      117.00222      126.05370395        1.79713748
      117.10192      129.58507490        1.87118832
      117.20161      131.78287550        1.91010812
      117.30131      134.44202506        2.30883660
      117.40100      136.64186655        1.95700831
      117.50069      143.17086821        1.90301113
      117.60039      146.84515173        1.84464689
      117.70008      155.84888226        1.84160310
      117.79977      156.80001979        2.26364355
      117.89947      157.95103670        1.97514153
      117.99916      161.82502817        2.02333118
      118.09885      163.85731273        2.07431769
      118.19855      165.13251305        2.18114954
      118.29824      168.11935239        2.41289231
      118.39793      171.92057444        2.21564106
      118.49763      177.18734493        2.12292728
      118.59732      175.88678558        2.04201363
      118.69701      178.97601872        2.14608174
      118.79671      174.97785554        2.29092211
      118.89640      171.36935108        2.11354558
      118.99609      177.90580927        2.15166342
      119.09579      179.50285502        2.18661328
      119.19548      179.65201789        2.39023310
      119.29517      175.72581789        2.45564949
      119.39487      175.88063025        2.25839949
      119.49456      171.22449592        2.09953786
      119.59425      164.00028943        1.99500207
      119.69395      164.42067017        2.10747628
      119.79364      159.45805365        2.09711488
      119.89333      154.89877447        2.00008310
      119.99303      150.06661087        1.92176780
      120.09272      141.87544343        1.91062245
      120.19241      141.12553508        2.14183773
      120.29211      137.77718395        2.09445278
      120.39180      134.65785457        1.97523354
      120.49149      130.80873109        1.81037618
      120.59119      123.26821282        1.70531995
      120.69088      123.49747524        1.83750685
      120.79057      124.70637441        1.80691591
      120.89027      121.39727204        1.75007264
      120.98996      119.60451990        1.72364391
      121.08966      121.04200222        1.74703952
      121.18935      117.39836432        1.97193679
      121.28904      117.96696024        1.92663492
      121.38874      116.74805465        1.81239569
      121.48843      114.01429215        1.69150033
      121.58812      114.34820543        1.61564445
      121.68782      113.59307106        1.78389290
      121.78751      115.08020344        1.71105817
      121.88720      116.67238932        1.70092165
      121.98690      113.06551616        1.68675607
      122.08659      113.62672416        1.72483364
      122.18628      111.19822567        1.97924251
      122.28598      109.85059970        1.84985859
      122.38567      107.60927953        1.75336786
      122.48536      111.78525483        1.69069245
      122.58506      110.18126209        1.58964476
      122.68475      107.91656372        1.78260380
      122.78444      105.69184103        1.66099664
      122.88414      106.22502093        1.65107677
      122.98383      105.70553896        1.68075153
      123.08352      105.93868498        1.66822997
      123.18322      103.82927194        1.92607333
      123.28291      100.97301864        1.72608826
      123.38260      105.99479837        1.70753933
      123.48230      102.37131449        1.61716727
      123.58199       99.63569941        1.49104705
      123.68168       96.04459530        1.67028531
      123.78138       95.33141213        1.50129696
      123.88107       91.21553132        1.43436916
      123.98076       86.90015486        1.42571061
      124.08046       87.13560799        1.41261058
      124.18015       88.07637983        1.60754079
      124.27984       87.60535516        1.43637134
      124.37954       85.50330429        1.33894704
      124.47923       82.02438117        1.28012609
      124.57893       80.54130573        1.35138696
