        5.04651       55.47868931        2.53913720
        5.14621       57.85463047        2.49915874
        5.24590       56.10020140        2.42553274
        5.34559       50.35129361        2.10712145
        5.44529       50.07899276        2.28612774
        5.54498       54.75851235        2.01121277
        5.64467       52.94400969        1.96019937
        5.74437       49.96173380        1.71870930
        5.84406       49.91261314        1.73847102
        5.94375       50.51492973        1.74662189
        6.04345       53.83815281        1.75231243
        6.14314       49.26034441        1.53446400
        6.24283       51.00801158        1.61309026
        6.34253       48.34229169        1.49767225
        6.44222       48.80885368        1.58461260
        6.54191       50.26573980        1.52349458
        6.64161       48.80764074        1.42210487
        6.74130       48.06572298        1.41691814
        6.84099       49.47162335        1.42715396
        6.94069       48.07648582        1.42800126
        7.04038       49.59661125        1.33889708
        7.14007       47.04745515        1.30121442
        7.23977       50.49560700        1.32464697
        7.33946       50.59362936        1.34623308
        7.43915       47.17310618        1.28281166
        7.53885       48.38509381        1.27527013
        7.63854       49.58649923        1.23396635
        7.73823       49.82596031        1.28440154
        7.83793       46.54511411        1.20117355
        7.93762       48.25374821        1.27586483
        8.03732       47.89320053        1.13993181
        8.13701       48.52599102        1.14228378
        8.23670       48.35033222        1.15629632
        8.33640       48.75789044        1.16149504
        8.43609       47.79264608        1.20217445
        8.53578       50.23007592        1.14805272
        8.63548       47.53697996        1.10391061
        8.73517       48.30631258        1.09162766
        8.83486       46.72147217        1.07612546
        8.93456       47.49212474        1.07942120
        9.03425       47.92090885        1.05254797
        9.13394       48.97943514        1.06615254
        9.23364       48.91181621        1.08097000
        9.33333       47.87608017        1.09119824
        9.43302       48.66409857        1.10058183
        9.53272       47.32599697        1.04862669
        9.63241       47.44787928        1.07965863
        9.73210       48.25635562        1.08666656
        9.83180       47.90974188        1.12821117
        9.93149       48.02825652        1.12152468
       10.03118       49.25616075        1.09287585
       10.13088       49.49679583        1.06929981
       10.23057       47.13321232        1.09262073
       10.33026       47.84844755        1.13797396
       10.42996       50.16116232        1.14928044
       10.52965       46.54301530        1.07199467
       10.62934       47.60142615        1.08676020
       10.72904       47.65544540        1.10346036
       10.82873       48.48672648        1.10746654
       10.92842       48.19543626        1.12263075
       11.02812       49.12278079        1.07981862
       11.12781       48.67898686        1.11347009
       11.22750       51.75449351        1.15966963
       11.32720       51.35261741        1.18621255
       11.42689       51.86353401        1.15075998
       11.52658       52.51196283        1.14415755
       11.62628       53.34378490        1.16573069
       11.72597       56.34587824        1.22366082
       11.82567       58.04763639        1.27661599
       11.92536       60.08787939        1.21558287
       12.02505       66.78334098        1.28778972
       12.12475       72.07970423        1.33691284
       12.22444       79.52886466        1.48945467
       12.32413       91.80710523        1.62532684
       12.42383       96.41223552        1.58103917
       12.52352      112.82351853        1.70046964
       12.62321      130.88272401        1.88424879
       12.72291      151.50345038        1.97347596
       12.82260      178.26483315        2.32824019
       12.92229      197.16026182        2.22432092
       13.02199      225.91272823        2.36321377
       13.12168      250.42483711        2.53188342
       13.22137      282.00358164        2.77498160
       13.32107      299.27390532        2.95039114
       13.42076      330.51107206        2.98572148
       13.52045      357.99735355        3.14604313
       13.62015      360.94083219        3.06131829
       13.71984      347.16661057        3.12851258
       13.81953      320.70137706        3.05724582
       13.91923      281.29401369        2.68865428
       14.01892      220.17963150        2.31446706
       14.11861      171.52266583        2.13062590
       14.21831      133.47128998        1.88068079
       14.31800      107.81398406        1.77907714
       14.41769       82.14479949        1.49493029
       14.51739       70.56406599        1.35162554
       14.61708       62.06558751        1.27065512
       14.71677       56.09952062        1.22761017
       14.81647       52.47706560        1.24369286
       14.91616       51.09166302        1.12848714
       15.01585       50.83898267        1.14598375
       15.11555       50.60310116        1.15656521
       15.21524       47.18559796        1.15092409
       15.31493       49.02733259        1.20153932
       15.41463       47.92893603        1.15021262
       15.51432       47.20992602        1.10615376
       15.61402       49.40413147        1.16031115
       15.71371       46.34309950        1.11595090
       15.81340       48.80111559        1.19140846
       15.91310       47.10306256        1.13725301
       16.01279       46.78020787        1.08515794
       16.11248       47.74543586        1.12577402
       16.21218       46.69604982        1.14414431
       16.31187       47.87506168        1.16137929
       16.41156       50.30804731        1.16845593
       16.51126       47.83682787        1.15856072
       16.61095       45.84243936        1.09350531
       16.71064       49.12773770        1.16793535
       16.81034       53.61697212        1.22401736
       16.91003       52.31915471        1.17418892
       17.00972       55.59070460        1.16205702
       17.10942       56.26482212        1.23567279
       17.20911       59.71711738        1.28440029
       17.30880       63.10463546        1.33192578
       17.40850       66.90823497        1.37130976
       17.50819       72.59372259        1.38722058
       17.60788       76.51735384        1.46862628
       17.70758       74.94276855        1.45934340
       17.80727       74.04155171        1.46840475
       17.90696       68.37811167        1.31911657
       18.00666       67.07547625        1.32938006
       18.10635       61.86771518        1.24163266
       18.20604       58.32756761        1.32240731
       18.30574       55.23630290        1.22636508
       18.40543       54.67017633        1.18985842
       18.50512       54.02825765        1.22015794
       18.60482       53.45983531        1.19466321
       18.70451       52.13393683        1.24666049
       18.80420       50.03222221        1.14721505
       18.90390       51.48268343        1.15136141
       19.00359       50.44934356        1.10991460
       19.10328       46.68739336        1.12949662
       19.20298       47.89264101        1.17962961
       19.30267       45.66858569        1.10611957
       19.40237       47.01941694        1.10970959
       19.50206       46.05401875        1.12583225
       19.60175       46.31930358        1.11642021
       19.70145       44.38193387        1.14584802
       19.80114       45.59196245        1.10153028
       19.90083       45.58910199        1.06427132
       20.00053       46.09204489        1.08913300
       20.10022       48.35607642        1.12393646
       20.19991       46.72042333        1.18104783
       20.29961       50.11197183        1.15909339
       20.39930       49.96568811        1.19235814
       20.49899       49.62639518        1.16764460
       20.59869       50.55139833        1.20006247
       20.69838       52.33463402        1.26615244
       20.79807       50.84602224        1.19029428
       20.89777       54.36869820        1.20314034
       20.99746       54.69536839        1.21876206
       21.09715       58.25464463        1.32502252
       21.19685       57.10021208        1.30493734
       21.29654       58.60158774        1.28965399
       21.39623       57.22778717        1.27445273
       21.49593       55.10891714        1.23266958
       21.59562       52.93606651        1.23712139
       21.69531       51.33851044        1.26713306
       21.79501       48.23652540        1.12348591
       21.89470       46.75436507        1.08114528
       21.99439       46.65239370        1.12574970
       22.09409       45.56625745        1.11528213
       22.19378       46.05595377        1.19078731
       22.29347       45.65128210        1.10413427
       22.39317       48.07744639        1.16254749
       22.49286       44.63278627        1.11909508
       22.59255       45.28673490        1.14054451
       22.69225       48.12366056        1.23910534
       22.79194       51.19391047        1.14790628
       22.89163       51.79475881        1.13207169
       22.99133       55.51968975        1.20473356
       23.09102       58.23303486        1.28149832
       23.19072       61.90793895        1.32460350
       23.29041       67.70313343        1.36824680
       23.39010       64.79239540        1.35239521
       23.48980       67.01510157        1.38049813
       23.58949       62.86986400        1.35485418
       23.68918       58.33350189        1.37213424
       23.78888       59.11314154        1.23102387
       23.88857       52.18045908        1.17143596
       23.98826       48.90018054        1.15921452
       24.08796       46.31927006        1.10612611
       24.18765       46.47964672        1.18727899
       24.28734       44.83337858        1.11014200
       24.38704       46.57796923        1.15051787
       24.48673       44.09429885        1.11532229
       24.58642       44.52345569        1.15783730
       24.68612       44.32464826        1.15371492
       24.78581       46.02495015        1.08380110
       24.88550       44.07044581        1.06003358
       24.98520       44.03800741        1.09883848
       25.08489       45.52030441        1.13954501
       25.18458       45.48666859        1.16305123
       25.28428       48.21297176        1.15418864
       25.38397       50.31553317        1.17344657
       25.48366       49.73585568        1.17362277
       25.58336       54.61375970        1.28206676
       25.68305       59.24304873        1.30981724
       25.78274       68.51959546        1.32983683
       25.88244       84.42270594        1.51400482
       25.98213      106.68313837        1.71673622
       26.08182      128.02437017        1.93070611
       26.18152      153.89501419        2.16906341
       26.28121      178.46844616        2.21041558
       26.38090      195.82237639        2.33566497
       26.48060      201.10067488        2.43258351
       26.58029      184.05746896        2.42682292
       26.67998      169.82509995        2.20141376
       26.77968      143.33524251        1.99757487
       26.87937      111.82307229        1.73807607
       26.97907       92.34393753        1.56579184
       27.07876       77.48181310        1.54384136
       27.17845       74.67133303        1.44829561
       27.27815       76.72090508        1.43373147
       27.37784       81.56750955        1.53614720
       27.47753       84.21637674        1.53795771
       27.57723       84.35436127        1.61241661
       27.67692       80.59644948        1.53821147
       27.77661       77.52347052        1.43981578
       27.87631       68.71997993        1.33277193
       27.97600       63.88536717        1.31388305
       28.07569       54.83121993        1.28794301
       28.17539       52.90211782        1.21105534
       28.27508       50.47916004        1.18343343
       28.37477       51.12922088        1.21940734
       28.47447       50.88017775        1.20692292
       28.57416       49.95986671        1.29293256
       28.67385       51.65463228        1.16971326
       28.77355       55.22354569        1.18776519
       28.87324       56.54963147        1.23400418
       28.97293       58.02150499        1.25293833
       29.07263       56.20632791        1.34414536
       29.17232       58.07639291        1.24697184
       29.27201       57.88718655        1.26793661
       29.37171       52.92300269        1.24694707
       29.47140       51.77684914        1.21909502
       29.57109       49.68241121        1.26622626
       29.67079       47.89514062        1.13176711
       29.77048       46.94172356        1.12300801
       29.87017       46.96114460        1.10119467
       29.96987       47.01231238        1.15526465
       30.06956       46.74876586        1.18850986
       30.16925       46.78709405        1.11951520
       30.26895       47.05462457        1.12701084
       30.36864       49.10853850        1.17024444
       30.46833       49.42624446        1.18593160
       30.56803       51.94383498        1.28435536
       30.66772       52.91071389        1.20629092
       30.76742       59.18282896        1.25050989
       30.86711       60.68764202        1.29159622
       30.96680       65.71524869        1.35203140
       31.06650       62.42672035        1.38158974
       31.16619       61.32607189        1.28747841
       31.26588       59.16616754        1.25691836
       31.36558       56.98688313        1.24961697
       31.46527       57.61189131        1.30738265
       31.56496       58.79923411        1.34204878
       31.66466       63.77933995        1.30735335
       31.76435       71.77060703        1.38574840
       31.86404       79.29750702        1.43775195
       31.96374       85.65712859        1.52921687
       32.06343       88.53248697        1.60897621
       32.16312       84.64011706        1.47828772
       32.26282       81.26031310        1.48374876
       32.36251       78.23316233        1.51402406
       32.46220       70.28237030        1.46043664
       32.56190       69.50664855        1.47813150
       32.66159       65.95806458        1.36725785
       32.76128       64.41152925        1.32075912
       32.86098       62.90498525        1.32475682
       32.96067       58.82008278        1.29688597
       33.06036       59.33858978        1.32638316
       33.16006       59.77707231        1.25375820
       33.25975       55.80790651        1.25059968
       33.35944       56.41841688        1.26426327
       33.45914       55.14091995        1.29734999
       33.55883       58.03367281        1.33419458
       33.65852       61.52544718        1.28114635
       33.75822       66.41265406        1.32892700
       33.85791       72.56525620        1.39497903
       33.95760       83.84053812        1.54418224
       34.05730       88.70126123        1.57293604
       34.15699      101.84408126        1.65910241
       34.25668      120.75357008        1.80096682
       34.35638      146.39987961        2.03512284
       34.45607      187.68653857        2.42852260
       34.55577      230.53373644        2.56591572
       34.65546      299.03831996        2.80490062
       34.75515      368.77458575        3.17582215
       34.85485      424.24829411        3.38165405
       34.95454      448.84964683        3.58844827
       35.05423      438.32611069        3.66736550
       35.15393      388.53772117        3.24072416
       35.25362      311.46474079        2.94437534
       35.35331      239.48351839        2.64730135
       35.45301      181.72117127        2.40504653
       35.55270      134.80363877        2.01573576
       35.65239      106.52643929        1.73007009
       35.75209       88.52775639        1.56514443
       35.85178       78.84234801        1.47474927
       35.95147       70.42175166        1.42624968
       36.05117       66.73740451        1.35973846
       36.15086       65.34269549        1.29367304
       36.25055       60.77597547        1.30331511
       36.35025       58.40425675        1.30256105
       36.44994       58.33531092        1.32782195
       36.54963       57.51898461        1.26567259
       36.64933       55.57446168        1.22544871
       36.74902       56.34910431        1.24688948
       36.84871       54.41172283        1.21634488
       36.94841       52.11469793        1.28723544
       37.04810       51.24336256        1.12545432
       37.14779       49.98382400        1.13427927
       37.24749       49.16031948        1.15615464
       37.34718       48.41395382        1.17658162
       37.44687       49.07326141        1.27248784
       37.54657       48.67915966        1.15700778
       37.64626       47.24729458        1.13543655
       37.74595       47.60595554        1.12193190
       37.84565       47.93454991        1.19120900
       37.94534       48.03556590        1.21482243
       38.04503       48.32055254        1.10125129
       38.14473       47.98568949        1.10817029
       38.24442       49.32120123        1.14407253
       38.34412       47.30391177        1.17131209
       38.44381       50.05319971        1.30294200
       38.54350       48.06840448        1.13811703
       38.64320       47.42283728        1.12699658
       38.74289       51.61911197        1.19135606
       38.84258       52.49618013        1.20437701
       38.94228       57.08374270        1.31748485
       39.04197       58.36791414        1.20132171
       39.14166       64.47151717        1.31365809
       39.24136       70.56000603        1.37085260
       39.34105       69.02168167        1.40301258
       39.44074       72.44639808        1.56804619
       39.54044       73.83138662        1.41544980
       39.64013       71.98950927        1.39333164
       39.73982       66.73865376        1.34675610
       39.83952       65.09073071        1.32097714
       39.93921       59.99316037        1.34446469
       40.03890       58.20075873        1.21208014
       40.13860       54.57130368        1.17201474
       40.23829       58.14090031        1.25269545
       40.33798       55.40758831        1.26089484
       40.43768       55.28882552        1.31781926
       40.53737       55.02029599        1.22012055
       40.63706       57.11504422        1.26932446
       40.73676       57.05812806        1.26667420
       40.83645       59.26086101        1.30176935
       40.93614       65.43148103        1.39108129
       41.03584       67.12668232        1.32601288
       41.13553       75.09230254        1.40434330
       41.23522       92.26268988        1.59511444
       41.33492      112.72978651        1.84648368
       41.43461      133.38131644        2.07355103
       41.53430      159.43589625        2.12400874
       41.63400      186.25981450        2.34690263
       41.73369      202.28803488        2.39287387
       41.83338      212.92890308        2.52114430
       41.93308      214.34852693        2.50704837
       42.03277      222.92558814        2.33732857
       42.13247      241.17389737        2.55568396
       42.23216      284.40103109        2.78167489
       42.33185      349.23211834        3.31119493
       42.43155      416.31339328        3.56400169
       42.53124      489.34964070        3.74399421
       42.63093      538.10780657        3.93479173
       42.73063      562.28548474        4.04143958
       42.83032      537.89805330        4.02098698
       42.93001      498.78897785        3.72548110
       43.02971      423.74521980        3.24182345
       43.12940      335.68928427        2.94169871
       43.22909      254.46237197        2.68986083
       43.32879      188.61187599        2.43771076
       43.42848      142.08987817        2.06818204
       43.52817      108.06053279        1.72485817
       43.62787       85.71805943        1.53057872
       43.72756       70.92730016        1.42479925
       43.82725       67.38556091        1.45011187
       43.92695       61.91181566        1.26027141
       44.02664       58.33547203        1.21736337
       44.12633       58.96603946        1.26959022
       44.22603       56.33389181        1.29152238
       44.32572       55.68673376        1.35334332
       44.42541       54.14360810        1.27400977
       44.52511       55.68897716        1.25737872
       44.62480       53.95648492        1.25508456
       44.72449       58.84986580        1.27044784
       44.82419       60.34394714        1.44361377
       44.92388       64.97539848        1.24948824
       45.02357       74.62033415        1.35031654
       45.12327       85.64156280        1.49033950
       45.22296      102.30209392        1.67227711
       45.32265      127.14089838        2.06327535
       45.42235      144.52304156        2.00329263
       45.52204      178.88508949        2.20779438
       45.62174      204.17202633        2.40234350
       45.72143      228.30517674        2.54129020
       45.82112      242.42544806        2.86745062
       45.92082      246.54156370        2.45514534
       46.02051      247.03138527        2.51020175
       46.12020      235.83835212        2.46007998
       46.21990      217.33942254        2.48071210
       46.31959      192.77153225        2.52156746
       46.41928      171.42480298        2.19549546
       46.51898      140.40884764        1.99680141
       46.61867      114.29675888        1.79163402
       46.71836       94.69352583        1.67206515
       46.81806       75.33916486        1.54575774
       46.91775       67.54691754        1.27561653
       47.01744       57.87936793        1.20861732
       47.11714       61.65282703        1.27605067
       47.21683       66.85170294        1.36807787
       47.31652       77.43732848        1.60679035
       47.41622       85.66256524        1.59282290
       47.51591       97.65723446        1.70413213
       47.61560      114.85349248        1.83317756
       47.71530      135.72534527        2.01512081
       47.81499      147.90761703        2.15682414
       47.91468      167.82288425        2.01064990
       48.01438      175.51643345        2.05728325
       48.11407      186.05859502        2.19802838
       48.21376      179.63915746        2.25446623
       48.31346      176.35581491        2.31330462
       48.41315      162.97597933        2.07229743
       48.51284      139.78957649        1.98206394
       48.61254      120.24648704        1.83017445
       48.71223      102.27709787        1.71796945
       48.81192       88.38212953        1.59283405
       48.91162       72.95212703        1.29681366
       49.01131       64.65696684        1.26344787
       49.11100       56.14241504        1.21944542
       49.21070       50.86895804        1.21846373
       49.31039       50.62320999        1.25098889
       49.41009       52.52906125        1.20391931
       49.50978       50.66696116        1.20677574
       49.60947       49.79370690        1.20505138
       49.70917       49.73320591        1.24897251
       49.80886       49.63238007        1.21432250
       49.90855       49.95237383        1.10974250
       50.00825       49.68137126        1.13009326
       50.10794       52.22886674        1.18518146
       50.20763       49.95709062        1.21091440
       50.30733       52.84953176        1.30475444
       50.40702       54.03044376        1.23720081
       50.50671       55.18007151        1.25401626
       50.60641       56.57621093        1.27164261
       50.70610       54.60757785        1.28541766
       50.80579       56.87814944        1.29466097
       50.90549       56.34847969        1.16177718
       51.00518       53.09807646        1.13763995
       51.10487       55.54668460        1.20288193
       51.20457       56.26504410        1.28886227
       51.30426       55.59315903        1.27444927
       51.40395       56.24358559        1.22893312
       51.50365       58.26750746        1.26522558
       51.60334       57.26751756        1.27904836
       51.70303       62.69456421        1.42145250
       51.80273       61.82620782        1.29475533
       51.90242       58.73575123        1.17895242
       52.00211       60.42856548        1.20154760
       52.10181       60.47636979        1.24006915
       52.20150       62.45239085        1.38788261
       52.30119       63.11595559        1.34406117
       52.40089       60.35138857        1.29358965
       52.50058       60.23932385        1.31679829
       52.60027       60.05572804        1.33273956
       52.69997       59.83669906        1.45788602
       52.79966       61.50411195        1.24272335
       52.89935       62.52090891        1.20899383
       52.99905       70.58732350        1.30592114
       53.09874       82.99403501        1.46218262
       53.19844       97.49157577        1.81541989
       53.29813      112.63071229        1.73468673
       53.39782      119.45056080        1.84811166
       53.49752      136.82270696        1.98776791
       53.59721      146.88181009        2.05838434
       53.69690      150.65807316        2.28750155
       53.79660      158.16830137        1.96379350
       53.89629      152.91303776        1.90971984
       53.99598      147.16191633        1.91898729
       54.09568      132.50766832        1.90080431
       54.19537      120.03032189        1.97243577
       54.29506      112.12343596        1.75111328
       54.39476      101.68889001        1.68016164
       54.49445       96.51487169        1.63787844
       54.59414       88.09089733        1.58821900
       54.69384       85.73849761        1.67145061
       54.79353       83.28979567        1.41261822
       54.89322       83.56158305        1.40986790
       54.99292       75.25878324        1.37680296
       55.09261       69.69648514        1.37763799
       55.19230       68.26986488        1.46417876
       55.29200       63.86621249        1.31792379
       55.39169       63.92639511        1.36054566
       55.49138       57.91593094        1.28995352
       55.59108       57.13481116        1.32229206
       55.69077       55.58317255        1.33840493
       55.79046       54.90155494        1.16291725
       55.89016       53.02850907        1.14010197
       55.98985       55.49880327        1.17393380
       56.08954       59.90109613        1.25998702
       56.18924       65.97636621        1.42735876
       56.28893       70.12703898        1.34695341
       56.38862       81.22161166        1.49989347
       56.48832       91.44552167        1.61926174
       56.58801      102.52689062        1.76461756
       56.68770      111.88234684        1.90300346
       56.78740      115.42773507        1.65438979
       56.88709      115.70256840        1.67291120
       56.98679      109.45432092        1.62830857
       57.08648       97.16788494        1.62581229
       57.18617       85.46308968        1.57830526
       57.28587       75.68980022        1.38744491
       57.38556       67.57328399        1.39524206
       57.48525       61.61116285        1.35766239
       57.58495       60.30193051        1.37392960
       57.68464       52.96871663        1.29860150
       57.78433       53.32681225        1.13987352
       57.88403       51.83202804        1.13682588
       57.98372       52.46880879        1.16202721
       58.08341       51.56478201        1.24551048
       58.18311       51.02901390        1.26741539
       58.28280       51.25435487        1.19640696
       58.38249       52.42664635        1.26440066
       58.48219       51.80798695        1.28403148
       58.58188       55.48890483        1.34357083
       58.68157       52.47758614        1.28022616
       58.78127       54.07031615        1.13674760
       58.88096       53.23858916        1.11129526
       58.98065       56.49469502        1.18850034
       59.08035       55.30068839        1.25466329
       59.18004       57.17764741        1.29423866
       59.27973       60.80649626        1.25940260
       59.37943       63.25027270        1.32690079
       59.47912       68.12713058        1.43377307
       59.57881       71.48616331        1.53872440
       59.67851       78.63872926        1.50494376
       59.77820       85.35691281        1.44160712
       59.87789       91.73133243        1.48936898
       59.97759       96.15788780        1.59526300
       60.07728      106.75719522        1.82083335
       60.17697      109.01054920        1.75287587
       60.27667      107.62769487        1.69326846
       60.37636      106.70240549        1.71862213
       60.47605      107.67335850        1.80115546
       60.57575       99.54529137        1.89752987
       60.67544       93.71499234        1.58152338
       60.77514       85.76787307        1.43805885
       60.87483       77.86505277        1.34334553
       60.97452       71.93370457        1.36002294
       61.07422       69.16565835        1.49803063
       61.17391       67.09450082        1.27798469
       61.27360       63.41469593        1.28639787
       61.37330       67.26368795        1.37418357
       61.47299       67.24562877        1.43438278
       61.57268       66.82760039        1.62604625
       61.67238       70.10992332        1.35757646
       61.77207       69.83632066        1.31958449
       61.87176       71.59534136        1.32129530
       61.97146       72.11821510        1.37681243
       62.07115       68.63002060        1.52096791
       62.17084       67.55806510        1.32205874
       62.27054       65.17080231        1.35380327
       62.37023       65.50520094        1.41135913
       62.46992       67.22157840        1.47882167
       62.56962       65.52357148        1.63972794
       62.66931       66.00545334        1.32582191
       62.76900       71.86740890        1.34867276
       62.86870       76.93882161        1.36518823
       62.96839       88.00717054        1.50716951
       63.06808       95.74988695        1.74985954
       63.16778      103.14833373        1.61252853
       63.26747      112.19331638        1.74075451
       63.36716      119.57102807        1.86533115
       63.46686      128.36199161        1.99115471
       63.56655      127.98572579        2.11210507
       63.66624      144.02210951        1.90526232
       63.76594      154.63180654        1.91816943
       63.86563      166.38496019        1.98416166
       63.96532      170.08736844        2.09929390
       64.06502      175.89632190        2.28745355
       64.16471      174.35693067        2.10649307
       64.26440      160.92418088        2.10595736
       64.36410      150.53685712        2.07757474
       64.46379      128.31795224        2.02732696
       64.56349      114.34439948        1.94716612
       64.66318       98.10446119        1.57798936
       64.76287       83.64932914        1.43863620
       64.86257       70.22930482        1.31571475
       64.96226       62.15511480        1.29623993
       65.06195       55.82591037        1.32810808
       65.16165       54.61307082        1.18494172
       65.26134       53.30219671        1.19798965
       65.36103       52.23082516        1.23740390
       65.46073       52.64424470        1.28312652
       65.56042       54.59962425        1.36490292
       65.66011       55.87533863        1.20401530
       65.75981       58.80447391        1.22293991
       65.85950       61.13204184        1.23904654
       65.95919       60.44211259        1.28963892
       66.05889       66.95614389        1.40428096
       66.15858       71.20274517        1.37721578
       66.25827       76.46208416        1.47613016
       66.35797       87.79278666        1.64820952
       66.45766       98.59216100        1.85629675
       66.55735      114.73100104        2.00273347
       66.65705      123.68639830        1.84474588
       66.75674      145.28797505        1.94936267
       66.85643      153.84687514        1.98336918
       66.95613      167.06983441        2.14970879
       67.05582      174.06804685        2.21113222
       67.15551      169.31672049        2.07488526
       67.25521      159.16589150        2.11098362
       67.35490      146.60672094        2.13226073
       67.45459      134.66712906        2.15482459
       67.55429      119.73745081        1.94621715
       67.65398      102.20571141        1.61117386
       67.75367       88.89376757        1.48989948
       67.85337       78.38697765        1.41593727
       67.95306       76.71639043        1.49782946
       68.05275       76.09712431        1.41251482
       68.15245       83.37327765        1.46608232
       68.25214       90.47767587        1.62129243
       68.35184       94.44612659        1.72640696
       68.45153      100.88411846        1.96450141
       68.55122      110.59041590        1.77232673
       68.65092      118.77631215        1.71230051
       68.75061      124.84374169        1.77382957
       68.85030      126.59491502        1.82066363
       68.95000      125.47750032        2.05500264
       69.04969      124.45206042        1.72840196
       69.14938      113.32027609        1.69547411
       69.24908      100.41932645        1.70394459
       69.34877       90.32417877        1.67104226
       69.44846       80.00190576        1.82370667
       69.54816       74.49274804        1.37194664
       69.64785       65.29958702        1.26613001
       69.74754       59.31022551        1.21861810
       69.84724       53.66129007        1.18916069
       69.94693       52.22519267        1.32391322
       70.04662       49.23037670        1.05692990
       70.14632       48.65554032        1.09260676
       70.24601       48.13715980        1.16361983
       70.34570       45.61025816        1.19847215
       70.44540       46.61680597        1.42763033
       70.54509       47.06479216        1.12282903
       70.64478       50.24463501        1.15861997
       70.74448       48.86468295        1.16065257
       70.84417       50.20618122        1.22086822
       70.94386       52.15233318        1.36599240
       71.04356       50.00762595        1.10678504
       71.14325       52.72915671        1.18114097
       71.24294       51.02381044        1.22241576
       71.34264       53.71635360        1.33006751
       71.44233       54.53120215        1.49546971
       71.54202       54.32115758        1.21514335
       71.64172       53.56695871        1.17376144
       71.74141       50.60081857        1.11998304
       71.84110       53.62855881        1.19366778
       71.94080       53.35784607        1.29742588
       72.04049       52.02461401        1.08428567
       72.14019       51.02583714        1.11878578
       72.23988       50.75499443        1.16747603
       72.33957       52.44161992        1.32564752
       72.43927       51.52458504        1.44641048
       72.53896       51.94628270        1.16446214
       72.63865       53.14569774        1.15132293
       72.73835       56.32415398        1.15931362
       72.83804       58.38453583        1.24647283
       72.93773       59.33532874        1.33480991
       73.03743       61.33344096        1.17805816
       73.13712       62.66025429        1.25577557
       73.23681       63.96608959        1.33304311
       73.33651       64.43337516        1.47218942
       73.43620       67.32413784        1.63013366
       73.53589       66.61689523        1.30805358
       73.63559       65.93180840        1.28084480
       73.73528       64.33853485        1.25945450
       73.83497       64.80541029        1.34008703
       73.93467       67.61134653        1.44148335
       74.03436       64.30606131        1.24399038
       74.13405       64.04834084        1.29426617
       74.23375       62.68821739        1.33370864
       74.33344       61.47994375        1.45394982
       74.43313       62.25285030        1.51820285
       74.53283       62.31898099        1.29061230
       74.63252       67.18494892        1.33056661
       74.73221       69.32449244        1.34507250
       74.83191       72.32762284        1.45756327
       74.93160       75.21585879        1.50325761
       75.03129       79.82588355        1.37697264
       75.13099       84.38250003        1.46658794
       75.23068       92.22380633        1.59961277
       75.33037       99.54944096        1.82716833
       75.43007      106.75765868        1.91982964
       75.52976      112.81254911        1.71439119
       75.62945      122.85255931        1.78794552
       75.72915      133.48620990        1.85685946
       75.82884      140.46183932        2.05114686
       75.92854      139.77737918        1.92066555
       76.02823      144.26983603        1.83023435
       76.12792      150.98613263        1.95737954
       76.22762      152.04667215        2.07242994
       76.32731      147.45297684        2.30456428
       76.42700      147.78140123        2.17754395
       76.52670      144.96672452        1.98949573
       76.62639      135.26278195        1.89688867
       76.72608      127.75789362        1.81254531
       76.82578      120.86668397        2.03102204
       76.92547      116.66626268        1.59808345
       77.02516      121.12806351        1.68798877
       77.12486      120.61753935        1.76941622
       77.22455      125.61053040        1.92292682
       77.32424      127.34551199        2.37871238
       77.42394      134.12001939        1.94961856
       77.52363      137.37597278        1.90688328
       77.62332      142.50304406        1.93354582
       77.72302      149.48064682        1.98521672
       77.82271      150.03387198        2.33246184
       77.92240      152.75757998        1.80235305
       78.02210      147.68624623        1.91191480
       78.12179      149.08644440        2.05180880
       78.22148      142.84987277        2.12344156
       78.32118      140.91895445        2.44714584
       78.42087      130.74860428        1.85456434
       78.52056      124.15491420        1.86590969
       78.62026      113.18201186        1.76698519
       78.71995      107.03035022        1.72378322
       78.81964       94.77457578        1.81116476
       78.91934       87.87104094        1.35106759
       79.01903       78.52200645        1.39984395
       79.11872       72.12033808        1.39592502
       79.21842       64.97293900        1.41309606
       79.31811       64.15290074        1.58163361
       79.41780       65.73525746        1.29883260
       79.51750       64.28905006        1.30509142
       79.61719       65.43285158        1.32057780
       79.71689       64.69680439        1.36330351
       79.81658       66.01160497        1.45984234
       79.91627       66.30337408        1.24018127
       80.01597       62.25515282        1.23502200
       80.11566       61.33357846        1.28141329
       80.21535       66.19978042        1.42331561
       80.31505       66.28706666        1.69310036
       80.41474       65.99550555        1.29812687
       80.51443       67.83175487        1.31038154
       80.61413       71.73550032        1.39243333
       80.71382       77.72173145        1.49961384
       80.81351       82.46935958        1.73603810
       80.91321       87.82701843        1.32130244
       81.01290      102.78761185        1.54370254
       81.11259      119.70367598        1.79878982
       81.21229      137.73120117        2.08785513
       81.31198      147.57548715        2.41109491
       81.41167      167.25238980        2.01051355
       81.51137      194.93407462        2.23430013
       81.61106      209.14554321        2.41703957
       81.71075      228.50979020        2.61594626
       81.81045      233.81283716        2.80331546
       81.91014      262.21824279        2.28432822
       82.00983      280.47359123        2.52611290
       82.10953      291.91294177        2.88360518
       82.20922      300.65693398        3.25524693
       82.30891      301.60221751        3.41857312
       82.40861      305.15881486        2.79658747
       82.50830      297.85669542        2.75508568
       82.60799      299.79609977        2.97766277
       82.70769      302.87532356        3.25745428
       82.80738      291.92638033        3.05446710
       82.90707      282.03094823        2.43723294
       83.00677      277.80870905        2.57735797
       83.10646      260.21280244        2.93374604
       83.20615      251.11260340        3.20749958
       83.30585      238.70224425        2.96190729
       83.40554      217.84377731        2.35143963
       83.50524      198.43645588        2.18909926
       83.60493      178.04002113        2.28343657
       83.70462      162.55324004        2.45962320
       83.80432      148.05789807        2.05089102
       83.90401      125.44971678        1.58284553
       84.00370      106.36488456        1.51955420
       84.10340       88.86019022        1.65899040
       84.20309       82.65540254        1.94225395
       84.30278       76.02477449        1.51466850
       84.40248       70.94703061        1.29122599
       84.50217       66.67238280        1.22784094
       84.60186       64.06123388        1.36080979
       84.70156       66.14125677        1.80955249
       84.80125       63.41651325        1.23350131
       84.90094       63.96514113        1.11288072
       85.00064       62.18008845        1.13041618
       85.10033       64.41905900        1.36179993
       85.20002       63.70997352        2.32267640
       85.29972       69.03050924        1.27559995
       85.39941       67.26849902        1.28374807
       85.49910       67.49508168        1.25052232
       85.59880       66.32369314        1.39385444
       85.69849       66.68864907        2.50935966
       85.79818       65.81416581        1.17525520
       85.89788       63.47215316        1.12648564
       85.99757       65.27301363        1.17384649
       86.09726       65.06562940        1.34559661
       86.19696       63.26058181        2.54816007
       86.29665       63.32870302        1.20651305
       86.39634       62.31146966        1.21751040
       86.49604       59.74850976        1.17407253
       86.59573       58.31829691        1.23583321
       86.69542       58.54842030        2.58899077
       86.79512       57.27103105        1.06287747
       86.89481       56.16115800        1.03765569
       86.99451       54.29579073        1.05749206
       87.09420       54.89233273        1.18587726
       87.19389       50.97192823        2.70653786
       87.29359       53.07100748        1.11932744
       87.39328       51.11015856        1.11321843
       87.49297       51.68656368        1.08678008
       87.59267       50.14838120        1.09147785
       87.69236       49.46459735        3.24360067
       87.79205       51.10755604        1.02712408
       87.89175       50.45270083        1.01228301
       87.99144       50.39617354        1.05421977
       88.09113       51.89180421        1.13707433
       88.19083       49.08850048        5.85172865
       88.29052       52.61845856        1.15225272
       88.39021       48.38264474        1.11210001
       88.48991       50.58930424        1.09145394
       88.58960       49.67960068        1.04739871
       88.68929       52.62562415        8.35182987
       88.78899       49.67006263        1.01088816
       88.88868       51.58291462        1.00773817
       88.98837       50.24778120        1.03443865
       89.08807       50.37629350        1.06090776
       89.18776       66.20909237        9.90162013
       89.28745       50.56681556        1.07993717
       89.38715       51.24239370        1.09831978
       89.48684       55.50807370        1.11882970
       89.58653       56.89181514        1.10973004
       89.68623       61.59201210        9.36215906
       89.78592       60.16490842        1.10901092
       89.88561       60.58706748        1.09106084
       89.98531       66.42693789        1.17167954
       90.08500       69.57631889        1.24379380
       90.18469      108.42814505       12.96740849
       90.28439       76.15950089        1.32931765
       90.38408       83.41186709        1.41485283
       90.48377       87.83957003        1.42484261
       90.58347       92.80702405        1.44177044
       90.68316       88.55921346       10.96898027
       90.78286       94.12876612        1.38994890
       90.88255       95.65065110        1.36342390
       90.98224      100.12163644        1.44345483
       91.08194       97.45233113        1.47066625
       91.18163      101.90600723       12.00252441
       91.28132       99.21774801        1.52794187
       91.38102       96.57610634        1.54732660
       91.48071       94.70610183        1.49457663
       91.58040       90.86957098        1.41567663
       91.68010       82.19550960       10.18297131
       91.77979       87.93592219        1.33674806
       91.87948       82.66034198        1.27578367
       91.97918       77.12447034        1.27940656
       92.07887       77.08908882        1.33243118
       92.17856       67.87949401        9.50351404
       92.27826       72.98994645        1.33885141
       92.37795       75.61651302        1.39518426
       92.47764       73.55007793        1.30613161
       92.57734       75.41739827        1.28315003
       92.67703       72.20979400        8.14928338
       92.77672       77.11819524        1.25063787
       92.87642       83.55187104        1.27719061
       92.97611       85.83611696        1.35185676
       93.07580       91.54270571        1.59367927
       93.17550       90.24264273        2.97525399
       93.27519       92.92780684        1.48007283
       93.37488       94.90142707        1.45403398
       93.47458       96.40578693        1.48170424
       93.57427      100.82797859        1.75215528
       93.67396      102.30577430        2.38530195
       93.77366      100.82071234        1.46681197
       93.87335       97.78011716        1.37965580
       93.97304       94.44281378        1.41286451
       94.07274       89.52670384        1.78563082
       94.17243       86.61294059        2.00380527
       94.27212       88.02200695        1.50463211
       94.37182       90.91177150        1.49044090
       94.47151       88.76307960        1.41028613
       94.57121       81.98779604        1.78837526
       94.67090       79.89364681        1.78570201
       94.77059       83.95120577        1.42317144
       94.87029       77.17577419        1.24052941
       94.96998       72.34354784        1.21607866
       95.06967       67.74274356        1.35635227
       95.16937       67.81502884        1.85771220
       95.26906       65.66247670        1.41206465
       95.36875       63.09470908        1.25588994
       95.46845       58.05467918        1.15755180
       95.56814       59.37950793        1.34716344
       95.66783       58.18161348        1.49807005
       95.76753       57.87543555        1.23467807
       95.86722       56.07312932        1.03369196
       95.96691       53.01295637        1.04241910
       96.06661       53.40901734        1.34035825
       96.16630       53.22367768        1.42686386
       96.26599       50.67520860        1.25024945
       96.36569       49.48666598        1.10854278
       96.46538       50.00839799        1.07548638
       96.56507       46.93595045        1.28586759
       96.66477       48.23675773        1.27028855
       96.76446       47.27110784        1.12369523
       96.86415       48.70003002        0.98798969
       96.96385       47.76062024        1.01051556
       97.06354       47.88762557        1.36824570
       97.16323       50.31085046        1.34106591
       97.26293       49.34163290        1.24769331
       97.36262       47.69762888        1.13592648
       97.46231       49.52257773        1.06490512
       97.56201       50.25733783        1.36486676
       97.66170       52.10858125        1.24836122
       97.76139       50.92882545        1.12116274
       97.86109       52.81291820        1.03246134
       97.96078       52.88339332        1.05572097
       98.06047       58.39238434        1.54116189
       98.16017       57.69973960        1.36185269
       98.25986       53.87335781        1.25677029
       98.35956       58.66900929        1.23839719
       98.45925       61.57302936        1.18429875
       98.55894       63.12921496        1.56435242
       98.65864       64.64489428        1.35832352
       98.75833       64.46409265        1.26738553
       98.85802       67.42612488        1.21038627
       98.95772       71.18590091        1.23553675
       99.05741       72.31949257        1.72889940
       99.15710       69.34338421        1.45578059
       99.25680       77.78929032        1.49423976
       99.35649       79.38116324        1.43771601
       99.45618       80.07841611        1.34572440
       99.55588       84.86115819        1.85136422
       99.65557       83.35191791        1.51362976
       99.75526       88.14058665        1.45910468
       99.85496       87.03399149        1.37994401
       99.95465       85.97223363        1.34454168
      100.05434       89.34692820        1.95286892
      100.15404       85.62564976        1.61005907
      100.25373       84.68449052        1.58195793
      100.35342       88.78231104        1.61368235
      100.45312       86.19760136        1.45076305
      100.55281       83.92201019        1.87997520
      100.65250       83.39628452        1.52670883
      100.75220       80.62199814        1.39030719
      100.85189       78.19855806        1.30821202
      100.95158       78.02870234        1.27186806
      101.05128       74.48229438        1.77139526
      101.15097       75.55575979        1.47458688
      101.25066       78.21990221        1.48251110
      101.35036       78.38168578        1.49691703
      101.45005       76.41742808        1.38980069
      101.54974       72.61401610        1.68718957
      101.64944       74.18786841        1.39145128
      101.74913       73.64691392        1.30623417
      101.84882       75.80391953        1.29009839
      101.94852       78.96550259        1.38714963
      102.04821       80.73100304        1.68945798
      102.14791       82.68338826        1.54099622
      102.24760       84.87715395        1.54823971
      102.34729       81.47402286        1.51051271
      102.44699       83.41895905        1.55511596
      102.54668       85.56355163        1.65278177
      102.64637       83.57162503        1.45875102
      102.74607       87.36789143        1.42066099
      102.84576       87.92409956        1.39814121
      102.94545       91.05918453        1.62073322
      103.04515       88.08653199        1.68733616
      103.14484       86.66463178        1.56363351
      103.24453       83.34203750        1.50953383
      103.34423       85.77337904        1.51912785
      103.44392       84.68236933        1.63500190
      103.54361       89.42661729        1.63247607
      103.64331       85.64964851        1.45407559
      103.74300       85.97623467        1.38965021
      103.84269       88.37926700        1.38466420
      103.94239       84.84338233        1.63014950
      104.04208       82.68920982        1.55679970
      104.14177       82.33870059        1.51139486
      104.24147       80.95060351        1.49776554
      104.34116       83.05899717        1.52667742
      104.44085       81.63791969        1.71895186
      104.54055       80.60829279        1.54642146
      104.64024       78.14160262        1.43108942
      104.73993       74.64718547        1.33458858
      104.83963       71.54055627        1.25861363
      104.93932       70.19000615        1.51126842
      105.03901       71.36162702        1.43588408
      105.13871       71.54577180        1.38437384
      105.23840       69.19080950        1.36050499
      105.33809       69.69593943        1.37354709
      105.43779       69.97363887        1.60137420
      105.53748       66.37699001        1.39852520
      105.63717       66.35650751        1.28171372
      105.73687       61.47617166        1.17387246
      105.83656       60.03229025        1.13027789
      105.93626       58.30334742        1.41148114
      106.03595       56.04967620        1.25419584
      106.13564       54.47497419        1.19498533
      106.23534       56.32478575        1.23014828
      106.33503       56.21035491        1.24130782
      106.43472       52.65348709        1.42014223
      106.53442       52.94899166        1.23872080
      106.63411       51.78747834        1.11279932
      106.73380       51.99078381        1.06269005
      106.83350       55.87286487        1.08535188
      106.93319       52.77732149        1.36728118
      107.03288       54.13568507        1.22735535
      107.13258       57.57998436        1.22878121
      107.23227       57.18487894        1.24231293
      107.33196       55.01577470        1.21508638
      107.43166       56.21258798        1.47583572
      107.53135       57.76712154        1.29090681
      107.63104       58.75673381        1.18551703
      107.73074       60.50172522        1.15423483
      107.83043       60.98159678        1.14417460
      107.93012       64.08956845        1.55185284
      108.02982       64.00834593        1.35740877
      108.12951       64.65193142        1.29734278
      108.22920       63.17836278        1.26184347
      108.32890       64.90472307        1.26685074
      108.42859       67.26844669        1.63698201
      108.52828       68.76410153        1.40399313
      108.62798       69.30629456        1.27811282
      108.72767       68.34867501        1.21823030
      108.82736       69.60283182        1.25649938
      108.92706       69.16086839        1.58626226
      109.02675       67.86782933        1.37461734
      109.12644       67.48202702        1.33780835
      109.22614       70.56698547        1.36927101
      109.32583       68.17291970        1.46642738
      109.42552       70.43196063        1.57235085
      109.52522       67.64856934        1.39012057
      109.62491       66.45045857        1.31042269
      109.72461       62.79868594        1.21777087
      109.82430       60.55459369        1.11696009
      109.92399       63.06822109        1.48222224
      110.02369       59.75512758        1.26329275
      110.12338       59.32308685        1.25049696
      110.22307       59.04448030        1.23820834
      110.32277       57.74686455        1.25038338
      110.42246       59.15337460        1.53880313
      110.52215       57.56647180        1.28563866
      110.62185       56.49081064        1.20024098
      110.72154       55.94814136        1.11435463
      110.82123       54.14939482        1.13214024
      110.92093       56.45225965        1.34833996
      111.02062       57.65085618        1.25887722
      111.12031       53.03699192        1.21627000
      111.22001       56.10900778        1.22769626
      111.31970       55.17183193        1.32117190
      111.41939       55.92081812        1.37639127
      111.51909       57.30618187        1.26434421
      111.61878       59.21911041        1.21083151
      111.71847       62.26338220        1.15525709
      111.81817       62.52157896        1.25646726
      111.91786       64.08734506        1.33880464
      112.01755       67.40040700        1.34078731
      112.11725       69.97846869        1.37666155
      112.21694       73.24005937        1.40221431
      112.31663       75.10376538        1.56480928
      112.41633       74.51026619        1.53113308
      112.51602       77.55777850        1.43868396
      112.61571       78.76548653        1.38309666
      112.71541       82.66594298        1.33547927
      112.81510       86.72710060        1.53399658
      112.91479       88.82324332        1.58149691
      113.01449       86.02316316        1.52392678
      113.11418       88.28845459        1.53882405
      113.21387       89.95857285        1.54633516
      113.31357       89.76602374        1.71547417
      113.41326       88.57975389        1.61942052
      113.51296       92.45045695        1.55644671
      113.61265       91.50835785        1.49409396
      113.71234       94.46667126        1.45015300
      113.81204       90.55936614        1.62640472
      113.91173       92.97310783        1.59701781
      114.01142       89.19476157        1.54826926
      114.11112       89.04481351        1.54613879
      114.21081       86.08583788        1.53106916
      114.31050       87.45193470        1.75009950
      114.41020       87.43470487        1.61702848
      114.50989       85.59856883        1.49772751
      114.60958       84.56333085        1.44053065
      114.70928       82.22280113        1.36988612
      114.80897       83.42842360        1.56511923
      114.90866       81.60451154        1.45990460
      115.00836       80.61015186        1.44415026
      115.10805       79.18658105        1.43906578
      115.20774       80.16276630        1.46987059
      115.30744       84.21228488        1.73002915
      115.40713       83.42281334        1.55958435
      115.50682       85.25586495        1.48855225
      115.60652       85.22487405        1.43436218
      115.70621       86.23582513        1.38672663
      115.80590       88.00722817        1.63436162
      115.90560       88.69653502        1.48715664
      116.00529       92.90192086        1.53921327
      116.10498       92.75996444        1.55409946
      116.20468       99.41222931        1.64618386
      116.30437       99.36999152        1.96193228
      116.40406      101.96296525        1.73106881
      116.50376      101.96179359        1.63584140
      116.60345      105.15447829        1.59485728
      116.70314      110.10320873        1.58272089
      116.80284      115.33554996        1.92509639
      116.90253      118.71186608        1.75709370
      117.00222      122.43552706        1.77055553
      117.10192      127.00635110        1.85191444
      117.20161      132.45389795        1.91460204
      117.30131      131.32087270        2.28114313
      117.40100      133.32714876        1.93248945
      117.50069      146.26396814        1.92325674
      117.60039      150.04528321        1.86445041
      117.70008      153.50225140        1.82714717
      117.79977      158.21023983        2.27342871
      117.89947      164.70736026        2.01699007
      117.99916      160.50109610        2.01451583
      118.09885      164.53583062        2.07821553
      118.19855      168.34537152        2.20204511
      118.29824      174.68724381        2.45961476
      118.39793      172.08323287        2.21623066
      118.49763      178.22208597        2.12874183
      118.59732      180.20299745        2.06678968
      118.69701      176.31580907        2.12942269
      118.79671      175.79189103        2.29582248
      118.89640      176.02996631        2.14198690
      118.99609      177.06364871        2.14604571
      119.09579      176.04483282        2.16472760
      119.19548      172.21327622        2.33911954
      119.29517      176.44125045        2.46018217
      119.39487      173.04935205        2.23945085
      119.49456      171.10115565        2.09832661
      119.59425      165.67770904        2.00487010
      119.69395      162.64574017        2.09549467
      119.79364      157.69335019        2.08490620
      119.89333      155.09361257        2.00092858
      119.99303      148.60134709        1.91185769
      120.09272      148.78470675        1.95664942
      120.19241      141.21607681        2.14207535
      120.29211      138.85314269        2.10224661
      120.39180      135.75170446        1.98289350
      120.49149      129.71018317        1.80230480
      120.59119      127.10199826        1.73149928
      120.69088      120.20641616        1.81226222
      120.79057      122.06548850        1.78713460
      120.89027      118.41591386        1.72790011
      120.98996      121.23062631        1.73505039
      121.08966      121.59607717        1.75069425
      121.18935      120.06698181        1.99398461
      121.28904      119.45666030        1.93844953
      121.38874      115.05527278        1.79871781
      121.48843      116.49379277        1.70957822
      121.58812      113.70816491        1.61073667
      121.68782      115.92359874        1.80186254
      121.78751      115.94168441        1.71713626
      121.88720      116.53584561        1.69955539
      121.98690      116.01363100        1.70841741
      122.08659      111.51588822        1.70824644
      122.18628      110.60876681        1.97352762
      122.28598      111.38037890        1.86239720
      122.38567      110.87487239        1.77959775
      122.48536      110.84688103        1.68316670
      122.58506      109.18949081        1.58208147
      122.68475      111.58027188        1.81245676
      122.78444      106.64397785        1.66816119
      122.88414      107.97567564        1.66437361
      122.98383      104.75364269        1.67275368
      123.08352      101.31887123        1.63083732
      123.18322      103.45085168        1.92212429
      123.28291      103.65574759        1.74865936
      123.38260      101.53934115        1.67064801
      123.48230      100.50000640        1.60187116
      123.58199      100.00051859        1.49347452
      123.68168       96.33283128        1.67244943
      123.78138       95.66889435        1.50364860
      123.88107       92.62489315        1.44517063
      123.98076       90.64478323        1.45598489
      124.08046       88.65004767        1.42460484
      124.18015       91.04658878        1.63424306
      124.27984       91.46475629        1.46755505
      124.37954       84.87204293        1.33368052
      124.47923       82.88156619        1.28656130
      124.57893       79.00535376        1.33808075
