        5.04651       59.43272813        2.63195627
        5.14621       52.32753496        2.37951188
        5.24590       55.46799059        2.41500977
        5.34559       51.95198150        2.14334647
        5.44529       51.16772146        2.31403544
        5.54498       54.78414085        2.01438494
        5.64467       49.94259627        1.90618079
        5.74437       49.78300690        1.71792483
        5.84406       53.89646482        1.80919722
        5.94375       48.71838759        1.71747596
        6.04345       48.87917132        1.67161077
        6.14314       50.83532024        1.56098054
        6.24283       51.17218951        1.61786241
        6.34253       50.86097536        1.53839082
        6.44222       49.29309099        1.59461893
        6.54191       50.96592831        1.53616607
        6.64161       49.34821401        1.43190559
        6.74130       50.94177322        1.46079977
        6.84099       50.29880544        1.44100962
        6.94069       50.78905374        1.46984465
        7.04038       47.31161529        1.30934125
        7.14007       50.47008794        1.34968637
        7.23977       48.44842586        1.29916572
        7.33946       49.69243083        1.33593805
        7.43915       50.53657278        1.32969696
        7.53885       48.24842414        1.27517147
        7.63854       49.76841726        1.23789540
        7.73823       48.87285804        1.27372287
        7.83793       49.12167961        1.23574098
        7.93762       49.22393885        1.29040148
        8.03732       49.37010364        1.15898882
        8.13701       50.31608316        1.16479703
        8.23670       49.13031210        1.16718258
        8.33640       47.74659357        1.15088878
        8.43609       48.47227016        1.21234647
        8.53578       47.72367822        1.12044677
        8.63548       48.03929830        1.11123742
        8.73517       46.98231420        1.07795910
        8.83486       48.02520705        1.09255161
        8.93456       49.46016141        1.10311480
        9.03425       48.98034662        1.06558773
        9.13394       48.68140220        1.06431979
        9.23364       46.19249699        1.05180111
        9.33333       46.75381235        1.07973821
        9.43302       48.79074789        1.10349754
        9.53272       48.52842173        1.06333528
        9.63241       48.87277976        1.09727652
        9.73210       49.63766438        1.10364277
        9.83180       49.99621423        1.15414834
        9.93149       51.14115919        1.15898007
       10.03118       48.87351650        1.09006947
       10.13088       47.68098992        1.05084465
       10.23057       49.67309763        1.12328016
       10.33026       48.38220356        1.14586144
       10.42996       48.98965336        1.13725840
       10.52965       50.29607707        1.11602140
       10.62934       50.00304273        1.11542758
       10.72904       47.65410392        1.10492639
       10.82873       48.52194152        1.10935747
       10.92842       51.90051747        1.16669977
       11.02812       50.22781113        1.09340492
       11.12781       50.28585417        1.13328187
       11.22750       51.08473467        1.15366089
       11.32720       52.17593192        1.19732346
       11.42689       53.36702518        1.16894941
       11.52658       53.48954112        1.15634814
       11.62628       53.68650057        1.17105315
       11.72597       58.14125346        1.24474949
       11.82567       57.37827512        1.27090724
       11.92536       60.34641875        1.21984054
       12.02505       64.61786543        1.26834125
       12.12475       70.09279079        1.32003279
       12.22444       75.96920959        1.45750782
       12.32413       85.72276253        1.57231271
       12.42383       97.40717248        1.59135807
       12.52352      112.41835934        1.69965824
       12.62321      125.86785099        1.84994017
       12.72291      147.00387599        1.94623489
       12.82260      167.37056194        2.25811986
       12.92229      188.12665637        2.17496877
       13.02199      218.36142229        2.32585272
       13.12168      240.68715741        2.48461631
       13.22137      278.36296503        2.76030517
       13.32107      306.43271330        2.99014829
       13.42076      327.37322192        2.97510455
       13.52045      351.61772812        3.12129672
       13.62015      357.84969540        3.05186116
       13.71984      339.86989533        3.09875202
       13.81953      316.47159741        3.04057469
       13.91923      284.36210773        2.70713542
       14.01892      225.40432684        2.34529849
       14.11861      174.92901624        2.15479837
       14.21831      136.02936081        1.90132150
       14.31800      106.42156971        1.76982844
       14.41769       82.27154361        1.49809374
       14.51739       71.92481484        1.36649019
       14.61708       63.35739510        1.28559084
       14.71677       54.78647975        1.21473055
       14.81647       50.74481675        1.22456068
       14.91616       52.37827628        1.14419341
       15.01585       49.82242474        1.13595088
       15.11555       49.69326989        1.14762255
       15.21524       48.66793784        1.17049300
       15.31493       47.98773729        1.19028456
       15.41463       48.45288891        1.15805665
       15.51432       47.07161057        1.10600991
       15.61402       49.72368485        1.16563354
       15.71371       47.64744472        1.13311782
       15.81340       46.55008210        1.16507624
       15.91310       47.74175408        1.14650044
       16.01279       47.73303489        1.09766226
       16.11248       47.26579025        1.12159009
       16.21218       47.48710458        1.15537626
       16.31187       47.72614336        1.16112248
       16.41156       47.95321696        1.14221841
       16.51126       48.96456732        1.17375790
       16.61095       50.58295477        1.15038800
       16.71064       51.20563157        1.19406699
       16.81034       51.20243576        1.19764300
       16.91003       52.17693079        1.17415994
       17.00972       57.00703252        1.17840506
       17.10942       57.25307346        1.24819340
       17.20911       63.02267659        1.32139323
       17.30880       62.55918613        1.32791026
       17.40850       68.52680970        1.38973717
       17.50819       73.68982738        1.39958149
       17.60788       73.38722574        1.44004282
       17.70758       75.81777501        1.46985032
       17.80727       74.80985872        1.47802171
       17.90696       71.07458610        1.34680525
       18.00666       66.62410096        1.32665507
       18.10635       64.51300554        1.26971789
       18.20604       60.54130082        1.34918116
       18.30574       59.30939909        1.27266420
       18.40543       54.66303725        1.19137717
       18.50512       55.59245289        1.23942383
       18.60482       54.12926347        1.20376154
       18.70451       51.78938159        1.24418682
       18.80420       51.71157263        1.16794421
       18.90390       52.74187724        1.16697266
       19.00359       50.32387946        1.11001685
       19.10328       49.15672395        1.16063878
       19.20298       46.51740931        1.16407446
       19.30267       46.81329248        1.12144556
       19.40237       47.23459760        1.11374786
       19.50206       45.43605440        1.11973072
       19.60175       46.15170718        1.11588850
       19.70145       48.68068416        1.20185140
       19.80114       47.06441278        1.12073758
       19.90083       45.63546227        1.06624400
       20.00053       47.67076894        1.10917718
       20.10022       45.53145774        1.09197220
       20.19991       46.15810022        1.17547191
       20.29961       47.55387318        1.13053551
       20.39930       48.94459088        1.18165362
       20.49899       52.62877952        1.20418846
       20.59869       51.02335712        1.20729002
       20.69838       53.49652968        1.28190102
       20.79807       55.55457999        1.24606380
       20.89777       55.76643456        1.22020292
       20.99746       59.09502012        1.26872849
       21.09715       56.00275980        1.30080032
       21.19685       58.41706439        1.32173111
       21.29654       59.41375773        1.30033937
       21.39623       58.71358310        1.29269054
       21.49593       55.91255759        1.24332630
       21.59562       55.50046686        1.26854673
       21.69531       51.28791472        1.26820637
       21.79501       50.92225750        1.15599824
       21.89470       49.42107215        1.11314710
       21.99439       46.27420275        1.12266802
       22.09409       45.90688561        1.12095973
       22.19378       45.71064930        1.18789358
       22.29347       46.48608348        1.11571290
       22.39317       44.62171704        1.12135491
       22.49286       46.58925299        1.14497396
       22.59255       46.91978954        1.16255241
       22.69225       48.09417072        1.24038754
       22.79194       50.55845013        1.14226547
       22.89163       51.04607993        1.12533898
       22.99133       55.17995743        1.20263935
       23.09102       58.76698361        1.28911150
       23.19072       59.81405824        1.30366069
       23.29041       63.73425908        1.32913139
       23.39010       62.63238295        1.33134363
       23.48980       63.05898765        1.34074006
       23.58949       58.33278166        1.30659362
       23.68918       59.59558678        1.38882073
       23.78888       54.10998141        1.17915002
       23.88857       49.35429714        1.14068700
       23.98826       49.06710249        1.16275717
       24.08796       46.65578198        1.11164076
       24.18765       46.71621445        1.19190488
       24.28734       46.35489710        1.13039885
       24.38704       46.83139398        1.15520296
       24.48673       46.38527401        1.14555806
       24.58642       45.88125567        1.17699430
       24.68612       43.83091793        1.14879221
       24.78581       42.75137971        1.04582928
       24.88550       44.68621690        1.06887025
       24.98520       44.82942005        1.11018810
       25.08489       46.49451764        1.15326068
       25.18458       48.19469151        1.19889340
       25.28428       47.20226820        1.14351947
       25.38397       48.80569971        1.15719655
       25.48366       49.56550325        1.17317701
       25.58336       55.07172192        1.28917946
       25.68305       62.36842889        1.34587386
       25.78274       70.12672414        1.34722189
       25.88244       84.02573327        1.51244283
       25.98213      106.36124134        1.71641701
       26.08182      133.47150817        1.97435978
       26.18152      156.69496605        2.19183747
       26.28121      181.75510974        2.23389975
       26.38090      196.54110924        2.34311539
       26.48060      198.29522107        2.41852867
       26.58029      184.30579712        2.43171020
       26.67998      169.70234048        2.20353810
       26.77968      144.07388966        2.00543809
       26.87937      109.97234970        1.72582519
       26.97907       87.60873404        1.52690616
       27.07876       76.46515243        1.53567951
       27.17845       78.02272078        1.48259838
       27.27815       77.20456019        1.44019519
       27.37784       80.11409625        1.52436129
       27.47753       84.94414375        1.54669673
       27.57723       82.45579570        1.59619669
       27.67692       84.97802345        1.58182904
       27.77661       80.47380353        1.46907533
       27.87631       69.91508686        1.34616991
       27.97600       62.65048562        1.30281117
       28.07569       58.33383189        1.33038962
       28.17539       53.67234983        1.22151006
       28.27508       50.77584290        1.18851181
       28.37477       53.30942215        1.24690133
       28.47447       49.64404012        1.19372014
       28.57416       52.55150255        1.32794480
       28.67385       51.75072495        1.17237632
       28.77355       54.57863655        1.18236722
       28.87324       55.48457789        1.22392274
       28.97293       60.09522814        1.27693607
       29.07263       58.01820788        1.36755823
       29.17232       58.99608700        1.25853350
       29.27201       55.86219113        1.24714434
       29.37171       55.17841341        1.27505036
       29.47140       51.03310500        1.21190049
       29.57109       46.92360098        1.23210063
       29.67079       50.33957354        1.16194659
       29.77048       45.98403112        1.11294833
       29.87017       45.99143705        1.09119210
       29.96987       46.70236051        1.15298359
       30.06956       47.84114518        1.20397636
       30.16925       46.00925844        1.11163055
       30.26895       46.90411238        1.12671185
       30.36864       50.15655632        1.18429697
       30.46833       51.75641339        1.21529348
       30.56803       54.01269777        1.31153620
       30.66772       55.91616410        1.24187344
       30.76742       58.75466402        1.24763106
       30.86711       61.74458674        1.30459110
       30.96680       65.35605792        1.35012241
       31.06650       64.34678141        1.40465180
       31.16619       61.86474059        1.29487957
       31.26588       61.33199289        1.28153126
       31.36558       57.93266421        1.26167648
       31.46527       58.36219022        1.31766869
       31.56496       61.18360992        1.37094073
       31.66466       63.93533240        1.31071388
       31.76435       71.10189588        1.38109396
       31.86404       80.81720346        1.45348552
       31.96374       83.29572501        1.50988510
       32.06343       90.40242511        1.62816297
       32.16312       87.34203513        1.50385123
       32.26282       81.83932271        1.49105040
       32.36251       77.07583645        1.50473600
       32.46220       71.34474406        1.47346059
       32.56190       67.78660659        1.46159639
       32.66159       67.33516852        1.38337666
       32.76128       63.25020811        1.31050033
       32.86098       62.54768782        1.32274438
       32.96067       61.11232036        1.32379465
       33.06036       59.61866610        1.33130650
       33.16006       55.55051515        1.21006376
       33.25975       53.69214634        1.22821937
       33.35944       54.20413264        1.24077164
       33.45914       55.60293016        1.30454323
       33.55883       60.79636983        1.36754756
       33.65852       61.66034214        1.28427654
       33.75822       64.56070693        1.31193878
       33.85791       73.34910793        1.40441157
       33.95760       80.47007120        1.51467212
       34.05730       93.30501643        1.61565942
       34.15699      102.34705945        1.66544832
       34.25668      118.36872041        1.78532677
       34.35638      147.39921110        2.04485125
       34.45607      187.60686572        2.43122860
       34.55577      229.71772697        2.56469324
       34.65546      298.72850453        2.80711590
       34.75515      370.07678798        3.18574424
       34.85485      425.43021090        3.39092791
       34.95454      451.75861433        3.60511729
       35.05423      434.23425723        3.65446559
       35.15393      388.14692711        3.24329760
       35.25362      310.10363745        2.94166939
       35.35331      235.92398080        2.63070979
       35.45301      176.23911959        2.37118923
       35.55270      137.83643543        2.04122098
       35.65239      106.62248924        1.73317014
       35.75209       87.70637617        1.55990746
       35.85178       81.05474822        1.49741721
       35.95147       72.86004122        1.45280002
       36.05117       71.36848396        1.40823956
       36.15086       64.69434069        1.28893577
       36.25055       62.22309089        1.32057641
       36.35025       59.10723439        1.31216722
       36.44994       60.36277765        1.35260794
       36.54963       56.36629521        1.25455660
       36.64933       56.44407543        1.23669435
       36.74902       56.03932735        1.24511243
       36.84871       52.59913278        1.19744226
       36.94841       52.23958558        1.29051246
       37.04810       50.25208862        1.11597272
       37.14779       50.29798682        1.13937845
       37.24749       47.71477472        1.14050088
       37.34718       50.66592573        1.20534639
       37.44687       48.37559158        1.26507524
       37.54657       46.63604775        1.13390615
       37.64626       47.19144196        1.13628670
       37.74595       47.15068257        1.11803561
       37.84565       46.22924157        1.17132849
       37.94534       47.08466618        1.20431279
       38.04503       47.97789441        1.09879976
       38.14473       46.40454213        1.09116257
       38.24442       48.40079784        1.13483210
       38.34412       48.46233054        1.18720766
       38.44381       47.61005002        1.27234185
       38.54350       49.44544879        1.15590990
       38.64320       50.04998092        1.15945436
       38.74289       51.09777419        1.18689397
       38.84258       54.52798797        1.22919816
       38.94228       54.48552641        1.28876189
       39.04197       58.76762745        1.20706239
       39.14166       64.94209552        1.32023359
       39.24136       68.45681337        1.35197770
       39.34105       69.13890239        1.40609185
       39.44074       71.96826325        1.56493175
       39.54044       72.67304418        1.40612732
       39.64013       70.09252476        1.37660254
       39.73982       67.75429906        1.35883307
       39.83952       64.11301213        1.31273158
       39.93921       60.63103063        1.35343678
       40.03890       61.02651703        1.24294449
       40.13860       55.75531224        1.18630009
       40.23829       54.49029063        1.21420155
       40.33798       54.90241235        1.25679565
       40.43768       57.14641065        1.34165986
       40.53737       56.39585367        1.23699602
       40.63706       55.43123246        1.25207779
       40.73676       59.60705981        1.29651118
       40.83645       60.87260112        1.32119783
       40.93614       62.98939002        1.36658798
       41.03584       66.11178878        1.31766821
       41.13553       77.24138247        1.42631342
       41.23522       91.96220005        1.59462956
       41.33492      115.67966263        1.87318021
       41.43461      134.09068753        2.08188410
       41.53430      159.99008807        2.13057277
       41.63400      185.94972444        2.34804100
       41.73369      202.59825941        2.39791462
       41.83338      212.79418509        2.52367994
       41.93308      214.29761387        2.51007293
       42.03277      220.25200608        2.32613568
       42.13247      237.08429991        2.53691944
       42.23216      284.08037722        2.78374708
       42.33185      345.33441646        3.29655190
       42.43155      415.86505119        3.56668900
       42.53124      495.10283771        3.77158238
       42.63093      550.66569681        3.98730730
       42.73063      569.56507029        4.07379293
       42.83032      555.49606972        4.09398369
       42.93001      507.41136582        3.76353904
       43.02971      427.93278732        3.26253166
       43.12940      334.74059730        2.94130865
       43.22909      250.17539577        2.67023915
       43.32879      186.59474026        2.42769355
       43.42848      142.06169429        2.07073322
       43.52817      106.79738800        1.71696410
       43.62787       84.60636871        1.52259810
       43.72756       72.91590749        1.44667245
       43.82725       65.25798237        1.42884260
       43.92695       61.59475810        1.25871240
       44.02664       60.83475372        1.24494507
       44.12633       57.64375886        1.25690031
       44.22603       56.88870550        1.29963362
       44.32572       55.90492934        1.35782220
       44.42541       52.78246224        1.25952177
       44.52511       55.03931158        1.25167183
       44.62480       57.80739886        1.30102048
       44.72449       55.91809917        1.23993192
       44.82419       60.60575399        1.44869614
       44.92388       64.86438847        1.25008976
       45.02357       74.85411968        1.35425375
       45.12327       85.91598317        1.49473867
       45.22296      102.01183938        1.67211970
       45.32265      122.70959549        2.02939228
       45.42235      141.52627451        1.98485012
       45.52204      175.12156474        2.18706563
       45.62174      205.21809990        2.41177620
       45.72143      232.50700053        2.56834389
       45.82112      247.79375309        2.90340578
       45.92082      258.29344916        2.51733169
       46.02051      251.75601175        2.53786375
       46.12020      238.17574558        2.47571772
       46.21990      218.35604223        2.48989435
       46.31959      194.81096716        2.53842022
       46.41928      169.06574765        2.18305921
       46.51898      138.08803567        1.98271096
       46.61867      110.19588254        1.76129743
       46.71836       88.50089009        1.61827903
       46.81806       73.77926657        1.53163762
       46.91775       66.08666974        1.26337989
       47.01744       60.64059936        1.23889107
       47.11714       63.09832191        1.29272024
       47.21683       67.94638745        1.38113590
       47.31652       76.37287461        1.59778707
       47.41622       83.04837703        1.57028649
       47.51591      102.24239780        1.74629266
       47.61560      114.03138590        1.82899337
       47.71530      137.17475105        2.02865804
       47.81499      148.37155897        2.16311938
       47.91468      166.36722187        2.00447459
       48.01438      180.49316187        2.08938478
       48.11407      182.25979641        2.17807847
       48.21376      183.29275475        2.28059690
       48.31346      175.36338772        2.30977610
       48.41315      163.71475687        2.07980894
       48.51284      140.84565919        1.99226456
       48.61254      120.44614178        1.83415295
       48.71223      100.51571601        1.70528486
       48.81192       84.71867779        1.56136042
       48.91162       71.66294977        1.28696871
       49.01131       60.64187359        1.22505832
       49.11100       57.40726774        1.23481517
       49.21070       53.35775983        1.24969947
       49.31039       52.59652656        1.27693823
       49.41009       50.54087519        1.18241826
       49.50978       51.13518943        1.21398646
       49.60947       49.64695195        1.20488346
       49.70917       51.51950175        1.27299122
       49.80886       50.25965313        1.22363946
       49.90855       50.04198542        1.11223213
       50.00825       48.34357202        1.11621819
       50.10794       51.35334612        1.17674703
       50.20763       49.60873495        1.20829027
       50.30733       53.20352140        1.31089025
       50.40702       53.82421813        1.23648578
       50.50671       52.29349226        1.22228992
       50.60641       56.21722361        1.26928672
       50.70610       56.62576220        1.31080502
       50.80579       55.44956617        1.27994988
       50.90549       56.60583527        1.16600028
       51.00518       54.43931182        1.15351898
       51.10487       55.24746038        1.20123489
       51.20457       53.88440967        1.26288788
       51.30426       56.60257614        1.28773885
       51.40395       57.92504563        1.24891532
       51.50365       57.82641461        1.26209908
       51.60334       57.63907102        1.28492947
       51.70303       59.97804399        1.39204808
       51.80273       61.55032518        1.29358368
       51.90242       61.47864490        1.20790088
       52.00211       60.66888947        1.20555976
       52.10181       63.04645732        1.26795785
       52.20150       60.49300385        1.36767533
       52.30119       61.97560600        1.33359683
       52.40089       63.50847066        1.32892085
       52.50058       63.21684490        1.35090021
       52.60027       59.25243451        1.32553484
       52.69997       60.26016330        1.46502020
       52.79966       60.41039542        1.23322894
       52.89935       63.92172843        1.22416286
       52.99905       69.93057268        1.30154422
       53.09874       85.38505687        1.48520646
       53.19844       93.94951167        1.78429887
       53.29813      110.04001458        1.71675634
       53.39782      124.62000546        1.89054204
       53.49752      133.94256107        1.96916122
       53.59721      150.42045880        2.08606710
       53.69690      151.28868635        2.29539021
       53.79660      159.87179441        1.97708833
       53.89629      154.96448546        1.92518753
       53.99598      146.02895455        1.91405923
       54.09568      136.48894122        1.93199210
       54.19537      124.36578231        2.01072876
       54.29506      111.36848518        1.74749455
       54.39476      100.82155426        1.67516790
       54.49445       92.50105971        1.60537889
       54.59414       87.27241035        1.58289453
       54.69384       87.61221074        1.69198946
       54.79353       80.74495715        1.39260876
       54.89322       81.98952250        1.39833618
       54.99292       78.90801081        1.41185784
       55.09261       73.66441678        1.41840706
       55.19230       69.72724394        1.48178417
       55.29200       67.66581251        1.35856179
       55.39169       63.91321382        1.36222930
       55.49138       61.25099151        1.32850995
       55.59108       56.68258338        1.31879490
       55.69077       56.32785884        1.34918426
       55.79046       54.96006354        1.16510063
       55.89016       54.80824379        1.16070436
       55.98985       54.80492935        1.16810918
       56.08954       60.33169122        1.26622314
       56.18924       62.45475461        1.39043271
       56.28893       72.94354367        1.37571354
       56.38862       78.60583009        1.47738438
       56.48832       93.16568088        1.63670705
       56.58801      103.75855839        1.77763627
       56.68770      110.09877915        1.89017948
       56.78740      113.12793164        1.63988235
       56.88709      115.15722813        1.67116243
       56.98679      107.66834836        1.61702724
       57.08648       98.00479222        1.63503155
       57.18617       88.63237419        1.60963483
       57.28587       77.96013114        1.41009880
       57.38556       69.67403885        1.41876838
       57.48525       63.71877571        1.38264319
       57.58495       59.99342560        1.37223413
       57.68464       56.31317470        1.34092582
       57.78433       51.30777191        1.11950778
       57.88403       53.19738385        1.15330295
       57.98372       52.74101897        1.16661258
       58.08341       51.49080139        1.24628414
       58.18311       50.74903204        1.26561787
       58.28280       53.30427966        1.22182350
       58.38249       52.07659742        1.26184839
       58.48219       53.22227347        1.30325136
       58.58188       52.76612025        1.31182508
       58.68157       53.40148769        1.29322204
       58.78127       52.68203082        1.12351049
       58.88096       52.92450368        1.10948723
       58.98065       54.37402335        1.16745788
       59.08035       58.07791729        1.28763346
       59.18004       55.77416987        1.27990788
       59.27973       60.59929925        1.25893248
       59.37943       61.22065578        1.30709568
       59.47912       64.36767727        1.39533617
       59.57881       70.11976701        1.52591734
       59.67851       75.05291338        1.47201633
       59.77820       83.38963446        1.42670714
       59.87789       92.49471123        1.49759529
       59.97759       97.95155730        1.61232862
       60.07728      103.37755765        1.79396381
       60.17697      107.85565555        1.74582631
       60.27667      106.24960145        1.68456117
       60.37636      103.77826384        1.69700197
       60.47605      102.81302102        1.76208759
       60.57575      100.69614600        1.91109737
       60.67544       93.42242510        1.58114993
       60.77514       87.51861805        1.45469655
       60.87483       78.91088662        1.35419856
       60.97452       70.94064869        1.35236588
       61.07422       67.41262046        1.48081624
       61.17391       66.51423048        1.27412656
       61.27360       65.85438712        1.31278021
       61.37330       66.30387613        1.36612731
       61.47299       68.29532894        1.44752636
       61.57268       66.61844691        1.62566471
       61.67238       69.34429588        1.35191713
       61.77207       69.90215293        1.32197925
       61.87176       72.52650028        1.33168598
       61.97146       70.24357816        1.36053201
       62.07115       69.97463903        1.53792694
       62.17084       70.80592661        1.35543410
       62.27054       65.51154380        1.35917433
       62.37023       64.76038787        1.40515754
       62.46992       63.88543461        1.44342238
       62.56962       66.49145650        1.65406552
       62.66931       66.65203290        1.33411674
       62.76900       71.76416976        1.34950532
       62.86870       80.64133247        1.39970521
       62.96839       85.89739429        1.49087772
       63.06808       95.76051430        1.75229905
       63.16778      102.39719571        1.60875302
       63.26747      109.83888191        1.72455240
       63.36716      119.20352476        1.86492655
       63.46686      126.34312132        1.97793206
       63.56655      136.06286943        2.18125606
       63.66624      145.80547144        1.91969825
       63.76594      160.91779723        1.95980668
       63.86563      167.09563169        1.99109160
       63.96532      180.37631569        2.16551133
       64.06502      180.49010142        2.32058586
       64.16471      174.79007634        2.11194672
       64.26440      161.73082341        2.11410070
       64.36410      144.99040859        2.04126463
       64.46379      125.69843176        2.00902196
       64.56349      116.01325073        1.96405994
       64.66318       97.08230753        1.57179123
       64.76287       78.17930091        1.39239857
       64.86257       69.02414944        1.30607024
       64.96226       61.51174800        1.29121430
       65.06195       58.65184185        1.36326999
       65.16165       54.52511230        1.18557242
       65.26134       53.21098081        1.19856685
       65.36103       54.96509105        1.27120562
       65.46073       55.72653911        1.32207062
       65.56042       55.17154716        1.37390183
       65.66011       55.62377030        1.20290325
       65.75981       58.62578438        1.22271101
       65.85950       58.84493813        1.21718058
       65.95919       63.68487236        1.32570882
       66.05889       65.42247456        1.38989129
       66.15858       69.45128556        1.36191134
       66.25827       79.10614705        1.50358699
       66.35797       89.52756504        1.66674401
       66.45766      104.38310036        1.91297841
       66.55735      116.16715387        2.01802373
       66.65705      125.27207695        1.85911580
       66.75674      144.48820019        1.94652789
       66.85643      157.41698372        2.00917396
       66.95613      164.42495997        2.13526758
       67.05582      170.37081350        2.19015278
       67.15551      169.42003236        2.07828880
       67.25521      161.49403018        2.12937216
       67.35490      149.86708223        2.15896024
       67.45459      134.15927001        2.15358962
       67.55429      116.52510663        1.92228168
       67.65398       98.97656114        1.58745851
       67.75367       86.50666449        1.47160344
       67.85337       77.75824378        1.41210560
       67.95306       77.22470536        1.50482403
       68.05275       76.41337162        1.41735934
       68.15245       82.90247003        1.46387084
       68.25214       91.69597128        1.63442615
       68.35184       98.10513695        1.76211193
       68.45153      104.77880802        2.00501435
       68.55122      107.54369617        1.74989247
       68.65092      122.31122475        1.74013031
       68.75061      123.34052129        1.76537978
       68.85030      128.35608221        1.83584528
       68.95000      124.47378010        2.04942823
       69.04969      123.31011987        1.72268283
       69.14938      113.39879679        1.69833291
       69.24908      104.15735206        1.73791780
       69.34877       90.68219328        1.67661318
       69.44846       79.75126091        1.82327089
       69.54816       72.19965320        1.35236668
       69.64785       64.36187067        1.25865043
       69.74754       57.07055611        1.19689754
       69.84724       52.19809404        1.17434978
       69.94693       52.21881753        1.32560907
       70.04662       51.28581614        1.08029484
       70.14632       48.99237721        1.09786726
       70.24601       47.64351164        1.15917218
       70.34570       46.22821051        1.20821016
       70.44540       45.75395998        1.41621262
       70.54509       47.47879353        1.12928741
       70.64478       49.21542241        1.14818981
       70.74448       52.03515500        1.19945573
       70.84417       52.16515599        1.24621507
       70.94386       47.66557676        1.30745842
       71.04356       50.21212427        1.11054261
       71.14325       53.75486628        1.19421743
       71.24294       53.62381580        1.25497088
       71.34264       54.01414631        1.33555329
       71.44233       52.68837323        1.47186103
       71.54202       55.24106268        1.22707336
       71.64172       55.15641000        1.19271341
       71.74141       55.68485103        1.17668831
       71.84110       53.21582396        1.19064420
       71.94080       52.41634940        1.28761175
       72.04049       50.99037804        1.07485572
       72.14019       52.06751321        1.13170646
       72.23988       52.46177487        1.18860825
       72.33957       53.17979816        1.33677148
       72.43927       51.00138854        1.44095329
       72.53896       50.82068935        1.15327743
       72.63865       52.25244636        1.14310281
       72.73835       55.82312249        1.15567415
       72.83804       55.91312686        1.22133661
       72.93773       58.66869363        1.32903998
       73.03743       61.20553166        1.17840244
       73.13712       63.42396700        1.26513372
       73.23681       64.38526997        1.33921721
       73.33651       64.98226350        1.48045801
       73.43620       65.87945290        1.61462885
       73.53589       65.53285878        1.29905736
       73.63559       65.91394595        1.28238784
       73.73528       66.70359370        1.28422064
       73.83497       62.46335848        1.31730503
       73.93467       64.61836469        1.41095803
       74.03436       63.58107771        1.23858555
       74.13405       63.80589062        1.29353569
       74.23375       61.65640893        1.32441320
       74.33344       58.47596424        1.41973642
       74.43313       63.19482417        1.53174845
       74.53283       61.49269468        1.28371000
       74.63252       66.18142962        1.32231624
       74.73221       70.07575900        1.35418986
       74.83191       72.35800098        1.45982499
       74.93160       74.48045526        1.49785670
       75.03129       78.39444225        1.36633028
       75.13099       81.97003010        1.44728463
       75.23068       92.44154920        1.60365588
       75.33037       97.49678506        1.81052147
       75.43007      102.82750139        1.88641986
       75.52976      111.34695233        1.70540757
       75.62945      127.36261817        1.82318752
       75.72915      136.65663218        1.88149709
       75.82884      139.92996374        2.04995265
       75.92854      145.63600341        1.96352095
       76.02823      151.08958424        1.87593774
       76.12792      157.81696183        2.00431246
       76.22762      157.44655177        2.11211866
       76.32731      149.84971457        2.32651058
       76.42700      150.46858288        2.20038848
       76.52670      143.28054283        1.98041248
       76.62639      132.57402543        1.88027019
       76.72608      128.14408188        1.81773100
       76.82578      122.59249241        2.04832678
       76.92547      117.00842576        1.60258290
       77.02516      115.57429001        1.65071892
       77.12486      119.91376701        1.76655988
       77.22455      125.15614366        1.92197828
       77.32424      125.68533907        2.36617411
       77.42394      133.39044063        1.94685380
       77.52363      138.30806828        1.91595677
       77.62332      142.95595479        1.93922976
       77.72302      155.23203735        2.02615144
       77.82271      157.85904813        2.39635864
       77.92240      156.01016444        1.82407500
       78.02210      155.83325958        1.96711960
       78.12179      152.57702226        2.07871001
       78.22148      144.49527094        2.13860718
       78.32118      132.61374256        2.37641512
       78.42087      128.04708091        1.83758123
       78.52056      118.38591775        1.82410845
       78.62026      113.61598860        1.77276265
       78.71995      100.33857862        1.67086619
       78.81964       95.99786947        1.82533367
       78.91934       83.15345989        1.31584154
       79.01903       77.31497609        1.39084530
       79.11872       68.36950344        1.36078331
       79.21842       64.92091081        1.41442189
       79.31811       63.06857265        1.57025347
       79.41780       64.95453099        1.29279247
       79.51750       63.05027804        1.29413354
       79.61719       65.00507425        1.31799932
       79.71689       63.58909714        1.35334217
       79.81658       65.06087173        1.45118652
       79.91627       66.66422567        1.24523481
       80.01597       61.22259838        1.22633553
       80.11566       67.19018555        1.34327369
       80.21535       64.40472032        1.40567976
       80.31505       62.65866808        1.64810741
       80.41474       64.69976477        1.28698515
       80.51443       67.85030294        1.31231875
       80.61413       69.06782064        1.36800065
       80.71382       75.88158881        1.48364460
       80.81351       80.06980629        1.71274255
       80.91321       86.83820750        1.31555688
       81.01290       99.89362736        1.52369689
       81.11259      116.49484495        1.77668759
       81.21229      133.25819060        2.05609098
       81.31198      148.04096669        2.41815357
       81.41167      167.48282345        2.01459309
       81.51137      190.03739094        2.20861437
       81.61106      211.00691825        2.43115190
       81.71075      227.32635136        2.61251546
       81.81045      232.35079070        2.79809873
       81.91014      262.75931045        2.28975131
       82.00983      280.45512957        2.52936513
       82.10953      287.33867499        2.86424632
       82.20922      301.86126431        3.26619891
       82.30891      303.15373974        3.43205985
       82.40861      310.50369551        2.82521403
       82.50830      309.11398762        2.81146244
       82.60799      310.39855046        3.03496701
       82.70769      301.82090271        3.25594960
       82.80738      300.97395271        3.10650400
       82.90707      292.76284728        2.48737401
       83.00677      278.74743435        2.58520393
       83.10646      263.37047165        2.95572062
       83.20615      251.69906179        3.21555906
       83.30585      233.50769471        2.93285452
       83.40554      218.20438095        2.35653703
       83.50524      200.74571214        2.20490242
       83.60493      181.80830780        2.31084839
       83.70462      162.86009199        2.46524914
       83.80432      145.02152093        2.03224293
       83.90401      119.51764798        1.54671094
       84.00370      102.08644001        1.49044636
       84.10340       86.42517998        1.63815266
       84.20309       81.28618669        1.92858691
       84.30278       75.37329131        1.51015113
       84.40248       70.70210865        1.29071210
       84.50217       67.84702755        1.24032190
       84.60186       67.12061528        1.39494303
       84.70156       65.66121381        1.80536110
       84.80125       64.05363073        1.24137252
       84.90094       64.57707144        1.11971506
       85.00064       63.96267260        1.14811486
       85.10033       63.98932274        1.35904981
       85.20002       66.07008506        2.36867518
       85.29972       67.59395304        1.26388580
       85.39941       65.08800290        1.26436682
       85.49910       67.03953541        1.24794620
       85.59880       66.83192956        1.40108602
       85.69849       65.35376004        2.48733250
       85.79818       67.48300717        1.19172803
       85.89788       64.98935897        1.14145924
       85.99757       63.73318461        1.16141068
       86.09726       63.39392703        1.32990133
       86.19696       64.77879177        2.58215196
       86.29665       60.35243347        1.17927695
       86.39634       65.34649947        1.24861424
       86.49604       63.24188522        1.20967675
       86.59573       58.31581067        1.23746485
       86.69542       61.44009070        2.65598276
       86.79512       58.15591946        1.07252769
       86.89481       56.98254347        1.04664906
       86.99451       55.21742088        1.06789519
       87.09420       55.02589321        1.18891808
       87.19389       53.51266315        2.77714305
       87.29359       52.32962031        1.11294442
       87.39328       53.75306359        1.14327664
       87.49297       50.35051031        1.07403134
       87.59267       51.84422655        1.11133553
       87.69236       55.44029665        3.43927427
       87.79205       50.69555940        1.02433409
       87.89175       50.41628493        1.01327476
       87.99144       49.13651767        1.04231253
       88.09113       49.54547672        1.11246977
       88.19083       47.80436128        5.78217364
       88.29052       49.44896856        1.11838529
       88.39021       50.88890215        1.14217214
       88.48991       49.19837844        1.07773711
       88.58960       49.45169930        1.04638806
       88.68929       55.69032639        8.60403582
       88.78899       49.33096818        1.00877208
       88.88868       51.41972178        1.00748762
       88.98837       49.12939739        1.02419481
       89.08807       47.56981844        1.03221470
       89.18776       39.70149634        7.67057992
       89.28745       47.88247878        1.05219354
       89.38715       52.18125806        1.10986026
       89.48684       55.63175504        1.12158346
       89.58653       56.13219031        1.10374618
       89.68623       61.24705161        9.34831461
       89.78592       60.03939426        1.10933485
       89.88561       62.93171926        1.11355529
       89.98531       65.52643005        1.16523420
       90.08500       72.77772045        1.27393580
       90.18469       77.75054945       10.98366211
       90.28439       78.46875592        1.35123808
       90.38408       80.42598296        1.39101343
       90.48377       90.87337205        1.45133413
       90.58347       91.45251819        1.43305811
       90.68316       92.41729026       11.22188478
       90.78286       95.63939983        1.40300722
       90.88255       97.36164123        1.37748760
       90.98224       98.63340303        1.43452852
       91.08194       98.90639228        1.48365533
       91.18163      115.62434359       12.80815202
       91.28132       97.04856252        1.51305364
       91.38102       97.93058829        1.56029846
       91.48071       96.42013767        1.51014965
       91.58040       91.62428886        1.42348402
       91.68010       78.98414642        9.99431048
       91.77979       82.97050545        1.29997121
       91.87948       80.18101881        1.25807856
       91.97918       77.05306059        1.28052443
       92.07887       76.18128880        1.32629517
       92.17856       83.22962154       10.54313476
       92.27826       74.56076409        1.35506985
       92.37795       72.00609414        1.36312107
       92.47764       72.41176881        1.29767004
       92.57734       73.69895362        1.27007023
       92.67703       90.21965935        9.12700075
       92.77672       81.27038057        1.28577240
       92.87642       82.66048293        1.27202102
       92.97611       87.31565723        1.36535449
       93.07580       93.27650775        1.61095175
       93.17550       91.03573611        2.99238296
       93.27519       91.46517798        1.47026885
       93.37488       97.10062496        1.47286681
       93.47458       99.91177670        1.51061020
       93.57427      103.26287591        1.77570893
       93.67396       97.85691440        2.33561827
       93.77366      102.45266336        1.48069833
       93.87335      100.13542617        1.39815681
       93.97304       93.94234200        1.41097708
       94.07274       94.43070141        1.83665536
       94.17243       92.65188036        2.07569883
       94.27212       91.16460682        1.53347523
       94.37182       89.37126811        1.47965742
       94.47151       87.23648237        1.39990299
       94.57121       83.48067987        1.80709554
       94.67090       86.54288920        1.86144956
       94.77059       79.77270555        1.38895606
       94.87029       77.46146434        1.24450116
       94.96998       70.05799939        1.19822262
       95.06967       66.95992933        1.35026366
       95.16937       66.49445090        1.84191649
       95.26906       65.57886723        1.41305359
       95.36875       59.74010726        1.22354244
       95.46845       62.22595505        1.20019985
       95.56814       58.46687606        1.33852125
       95.66783       57.31654395        1.48884109
       95.76753       58.18914801        1.23969459
       95.86722       55.76661194        1.03223502
       95.96691       54.20659565        1.05554841
       96.06661       53.16727678        1.33910497
       96.16630       53.01941166        1.42602436
       96.26599       52.94827495        1.27980007
       96.36569       51.47248136        1.13216285
       96.46538       50.72642734        1.08466142
       96.56507       47.21736068        1.29146121
       96.66477       49.03902023        1.28256443
       96.76446       48.28035647        1.13719267
       96.86415       47.13311331        0.97321688
       96.96385       49.39489671        1.02909806
       97.06354       50.28469848        1.40407304
       97.16323       51.61556976        1.36022956
       97.26293       50.05273209        1.25837045
       97.36262       49.66692381        1.16077561
       97.46231       49.13051021        1.06209071
       97.56201       50.66466301        1.37224592
       97.66170       50.93443813        1.23582232
       97.76139       52.85359360        1.14376310
       97.86109       54.47752087        1.05007501
       97.96078       54.35831760        1.07183402
       98.06047       54.95173788        1.49689268
       98.16017       56.21793901        1.34598550
       98.25986       56.65765158        1.29069358
       98.35956       60.06526159        1.25478946
       98.45925       59.72321693        1.16786207
       98.55894       61.51576370        1.54621580
       98.65864       64.98401494        1.36372434
       98.75833       64.53802335        1.26981607
       98.85802       69.66914916        1.23210091
       98.95772       73.00941691        1.25301911
       99.05741       72.03399986        1.72777897
       99.15710       71.96423708        1.48516116
       99.25680       74.62985842        1.46537929
       99.35649       79.48308277        1.44057120
       99.45618       83.03135654        1.37228988
       99.55588       83.59541605        1.83988449
       99.65557       86.96266799        1.54833369
       99.75526       85.71958424        1.44073041
       99.85496       84.69138773        1.36295679
       99.95465       85.61998887        1.34356461
      100.05434       89.48362818        1.95698813
      100.15404       87.00934866        1.62526839
      100.25373       86.65800247        1.60253902
      100.35342       86.92597757        1.59875681
      100.45312       84.92928414        1.44191439
      100.55281       81.36671636        1.85344587
      100.65250       82.91583175        1.52431792
      100.75220       79.96774829        1.38647757
      100.85189       77.72978974        1.30601106
      100.95158       76.42218080        1.26032223
      101.05128       80.00700364        1.83873353
      101.15097       77.25096806        1.49312434
      101.25066       77.42316678        1.47687634
      101.35036       79.23894309        1.50714249
      101.45005       75.58921131        1.38406078
      101.54974       74.45101473        1.71079781
      101.64944       72.23117828        1.37472470
      101.74913       77.34268545        1.34057586
      101.84882       77.53927339        1.30660978
      101.94852       79.83544716        1.39668093
      102.04821       81.23018860        1.69697305
      102.14791       82.43976310        1.54077209
      102.24760       83.78758298        1.54027140
      102.34729       81.64569344        1.51413786
      102.44699       85.34720959        1.57520002
      102.54668       84.29333318        1.64259149
      102.64637       89.50962180        1.51202272
      102.74607       88.24217276        1.42970704
      102.84576       89.51184466        1.41267610
      102.94545       87.76445321        1.59308804
      103.04515       90.11049527        1.70901728
      103.14484       87.35320909        1.57197301
      103.24453       85.35342246        1.52979480
      103.34423       87.20589207        1.53388917
      103.44392       84.21215576        1.63261288
      103.54361       87.95462429        1.62106855
      103.64331       85.66667410        1.45616836
      103.74300       84.33503121        1.37808646
      103.84269       87.25820004        1.37764206
      103.94239       81.97737637        1.60436440
      104.04208       82.72800229        1.55925263
      104.14177       80.43214807        1.49569501
      104.24147       84.26355651        1.53033154
      104.34116       82.39615529        1.52257470
      104.44085       79.17005376        1.69489176
      104.54055       81.00096507        1.55228149
      104.64024       79.01212715        1.44101085
      104.73993       75.04794837        1.33997854
      104.83963       71.88833729        1.26337582
      104.93932       69.54668630        1.50630943
      105.03901       69.20551416        1.41581416
      105.13871       67.59035449        1.34717870
      105.23840       70.34789816        1.37372879
      105.33809       68.57921529        1.36427173
      105.43779       70.11924938        1.60519676
      105.53748       67.79550164        1.41535560
      105.63717       64.43385927        1.26461694
      105.73687       61.13525501        1.17216930
      105.83656       59.60906356        1.12778082
      105.93626       58.20526097        1.41218067
      106.03595       57.23711586        1.26916530
      106.13564       55.67471858        1.20974503
      106.23534       52.96329963        1.19433534
      106.33503       52.53906291        1.20154168
      106.43472       52.89732396        1.42534955
      106.53442       53.21379083        1.24349273
      106.63411       51.66866583        1.11300945
      106.73380       50.34703223        1.04709922
      106.83350       51.44175503        1.04266007
      106.93319       53.44322301        1.37775876
      107.03288       53.59813696        1.22286248
      107.13258       55.55430669        1.20850674
      107.23227       55.74553588        1.22816250
      107.33196       56.63976482        1.23461481
      107.43166       54.32910158        1.45275082
      107.53135       57.89386084        1.29406188
      107.63104       58.67616688        1.18629008
      107.73074       62.02843458        1.17033775
      107.83043       61.34034055        1.14908900
      107.93012       62.74181383        1.53743550
      108.02982       65.03750831        1.37016246
      108.12951       64.63125792        1.29887400
      108.22920       65.08986611        1.28259415
      108.32890       66.41988827        1.28333936
      108.42859       68.36446594        1.65254035
      108.52828       67.14748801        1.38917258
      108.62798       70.89163438        1.29445326
      108.72767       70.25005356        1.23679740
      108.82736       68.47163061        1.24786830
      108.92706       70.89786011        1.60830970
      109.02675       67.59039070        1.37363073
      109.12644       67.16128104        1.33639969
      109.22614       66.44096247        1.33022612
      109.32583       66.34338782        1.44846310
      109.42552       68.19737807        1.54915954
      109.52522       67.67488418        1.39225647
      109.62491       65.05755682        1.29829091
      109.72461       63.56194381        1.22682510
      109.82430       60.29512241        1.11604949
      109.92399       60.25085584        1.45053687
      110.02369       60.26768353        1.27042412
      110.12338       60.56242973        1.26524196
      110.22307       59.88089394        1.24865727
      110.32277       57.78968181        1.25252707
      110.42246       58.24883343        1.52899260
      110.52215       57.38709378        1.28534830
      110.62185       56.69939362        1.20407716
      110.72154       55.32163880        1.10956040
      110.82123       58.10123258        1.17446177
      110.92093       54.87542828        1.33108570
      111.02062       56.10749979        1.24351128
      111.12031       55.01452244        1.24048619
      111.22001       56.26933972        1.23110583
      111.31970       57.68507409        1.35286089
      111.41939       56.24183243        1.38220412
      111.51909       57.03548569        1.26303496
      111.61878       60.16598817        1.22215142
      111.71847       59.75252950        1.13314182
      111.81817       65.64165879        1.28930512
      111.91786       66.93790689        1.37022750
      112.01755       66.62999668        1.33485383
      112.11725       69.31132627        1.37188821
      112.21694       72.18852201        1.39392623
      112.31663       75.62080386        1.57231914
      112.41633       75.48911920        1.54327607
      112.51602       78.31358524        1.44765245
      112.61571       81.69144215        1.41058377
      112.71541       83.17637849        1.34141429
      112.81510       88.36361446        1.55056430
      112.91479       89.17083617        1.58672916
      113.01449       87.42521624        1.53842837
      113.11418       87.73402357        1.53600867
      113.21387       93.35284055        1.57753429
      113.31357       91.99538496        1.73910647
      113.41326       91.68124153        1.64991259
      113.51296       91.90228967        1.55387276
      113.61265       90.55460863        1.48822719
      113.71234       92.33556029        1.43551389
      113.81204       92.23942544        1.64371606
      113.91173       88.23772006        1.55763972
      114.01142       87.24795190        1.53322479
      114.11112       87.08028506        1.53092958
      114.21081       89.16212043        1.56044032
      114.31050       85.09867155        1.72856093
      114.41020       86.87698711        1.61398963
      114.50989       87.19891104        1.51377263
      114.60958       83.86198235        1.43643034
      114.70928       82.08536066        1.37056747
      114.80897       78.41784277        1.51915746
      114.90866       80.55150324        1.45234410
      115.00836       78.42375089        1.42622943
      115.10805       79.38511561        1.44280908
      115.20774       81.86616090        1.48748409
      115.30744       82.96048946        1.71934695
      115.40713       82.33361926        1.55138555
      115.50682       82.49261874        1.46604941
      115.60652       83.49662466        1.42155929
      115.70621       84.75835613        1.37656561
      115.80590       89.32562320        1.64883872
      115.90560       90.37410389        1.50325271
      116.00529       91.59818697        1.53035058
      116.10498       95.40149980        1.57832788
      116.20468       96.81068283        1.62652638
      116.30437       97.64992896        1.94736251
      116.40406      100.12236894        1.71755708
      116.50376      102.56606231        1.64291093
      116.60345      105.95134135        1.60307440
      116.70314      110.90633755        1.59065110
      116.80284      117.48509036        1.94569565
      116.90253      121.20401699        1.77796852
      117.00222      125.95309733        1.79842931
      117.10192      131.46839525        1.88697496
      117.20161      130.89375320        1.90572926
      117.30131      134.35185671        2.31064291
      117.40100      135.85670979        1.95351173
      117.50069      145.03046609        1.91760089
      117.60039      152.38020681        1.88155931
      117.70008      158.98229775        1.86231021
      117.79977      164.25992490        2.32006286
      117.89947      165.68107308        2.02570608
      117.99916      168.84246821        2.06955524
      118.09885      165.30289179        2.08588408
      118.19855      169.92450984        2.21541646
      118.29824      176.50077372        2.47579581
      118.39793      177.19436252        2.25229708
      118.49763      175.04019266        2.11222608
      118.59732      177.99071028        2.05663784
      118.69701      182.18427021        2.16789377
      118.79671      179.64955423        2.32427690
      118.89640      174.19908330        2.13351769
      118.99609      170.69250892        2.10941744
      119.09579      178.71437978        2.18418430
      119.19548      176.96495679        2.37471960
      119.29517      172.22043936        2.43345413
      119.39487      175.53611643        2.25868190
      119.49456      172.82189264        2.11178532
      119.59425      163.42886702        1.99371216
      119.69395      162.87339112        2.09977032
      119.79364      155.94234365        2.07593420
      119.89333      152.35991055        1.98566926
      119.99303      147.63401349        1.90810101
      120.09272      146.15373518        1.94167954
      120.19241      141.52445569        2.14729655
      120.29211      133.93550643        2.06708366
      120.39180      129.67369614        1.94016903
      120.49149      129.15175169        1.80078667
      120.59119      121.64989219        1.69589388
      120.69088      124.65948926        1.84827808
      120.79057      121.47010238        1.78511490
      120.89027      119.35493325        1.73711233
      120.98996      118.54796191        1.71787651
      121.08966      120.04171704        1.74169750
      121.18935      117.07375870        1.97139698
      121.28904      119.83839900        1.94416412
      121.38874      116.14735201        1.80971846
      121.48843      114.43594141        1.69655311
      121.58812      113.48365112        1.61128365
      121.68782      119.08001279        1.82887106
      121.78751      113.98212948        1.70472177
      121.88720      117.16861594        1.70647823
      121.98690      115.96569945        1.71034403
      122.08659      114.98990035        1.73718049
      122.18628      110.57183776        1.97583332
      122.28598      114.29211837        1.88929819
      122.38567      112.04550557        1.79143254
      122.48536      110.96154261        1.68629494
      122.58506      113.32265108        1.61413499
      122.68475      110.77138315        1.80823790
      122.78444      107.87267323        1.68005919
      122.88414      107.94983013        1.66639794
      122.98383      106.11169626        1.68589343
      123.08352      104.68666567        1.66013320
      123.18322      103.05913768        1.92102133
      123.28291      103.56971617        1.75026601
      123.38260      102.56895341        1.68140352
      123.48230       99.10395226        1.59275642
      123.58199       98.66957589        1.48541796
      123.68168       93.67955724        1.65131001
      123.78138       94.46430706        1.49608852
      123.88107       92.35159005        1.44495458
      123.98076       88.08878761        1.43710281
      124.08046       89.73616128        1.43527881
      124.18015       86.67925595        1.59645566
      124.27984       85.78706896        1.42289521
      124.37954       85.17472256        1.33786001
      124.47923       83.90392967        1.29625228
      124.57893       78.00741842        1.33133781
