        5.04651       55.85011503        2.54842477
        5.14621       58.97141782        2.52402498
        5.24590       56.21792724        2.42881909
        5.34559       56.85668898        2.24029713
        5.44529       61.53479147        2.53594225
        5.54498       55.40916238        2.02378315
        5.64467       54.12887487        1.98269315
        5.74437       53.61848638        1.78126271
        5.84406       56.71973076        1.85423422
        5.94375       52.32445282        1.77827994
        6.04345       55.92929425        1.78668983
        6.14314       52.67400208        1.58741126
        6.24283       54.36717568        1.66605877
        6.34253       54.25591762        1.58744356
        6.44222       55.04307761        1.68364925
        6.54191       52.82642959        1.56243067
        6.64161       53.20385346        1.48544854
        6.74130       53.78864420        1.49965368
        6.84099       55.75917561        1.51592666
        6.94069       53.63042778        1.50898157
        7.04038       51.44493645        1.36411779
        7.14007       54.04943726        1.39545111
        7.23977       52.68335354        1.35355094
        7.33946       50.99875092        1.35203950
        7.43915       54.74047987        1.38266461
        7.53885       53.47870573        1.34136159
        7.63854       52.49018683        1.27009487
        7.73823       51.53507639        1.30671739
        7.83793       55.81979465        1.31624229
        7.93762       57.43953834        1.39288809
        8.03732       52.58834787        1.19505981
        8.13701       54.06512075        1.20631639
        8.23670       52.36038842        1.20382481
        8.33640       50.59663416        1.18362722
        8.43609       52.41858685        1.25959663
        8.53578       52.34337429        1.17239560
        8.63548       53.38920214        1.17048397
        8.73517       53.84376650        1.15307119
        8.83486       56.25624575        1.18159054
        8.93456       54.04275442        1.15207356
        9.03425       54.32037089        1.12121719
        9.13394       54.89024177        1.12922777
        9.23364       54.12228810        1.13764202
        9.33333       54.85673525        1.16868439
        9.43302       54.54143243        1.16574155
        9.53272       54.98788089        1.13097458
        9.63241       54.00900641        1.15250453
        9.73210       52.53312967        1.13431118
        9.83180       54.85524847        1.20788318
        9.93149       57.52817792        1.22822282
       10.03118       56.52432202        1.17138728
       10.13088       52.98840930        1.10684267
       10.23057       56.21522443        1.19399620
       10.33026       54.74746452        1.21791521
       10.42996       55.09125051        1.20500828
       10.52965       57.97776837        1.19729773
       10.62934       55.20084983        1.17096521
       10.72904       54.79656219        1.18390671
       10.82873       54.59006854        1.17571070
       10.92842       53.90768368        1.18789431
       11.02812       56.81064065        1.16191104
       11.12781       55.15332831        1.18583371
       11.22750       55.22496365        1.19842848
       11.32720       55.82605769        1.23736891
       11.42689       56.54109366        1.20209395
       11.52658       58.87500252        1.21213377
       11.62628       58.22700201        1.21849645
       11.72597       56.95421322        1.23064624
       11.82567       58.88127049        1.28617584
       11.92536       59.39161491        1.20885453
       12.02505       61.79611104        1.23892822
       12.12475       59.99466590        1.21954853
       12.22444       64.93580484        1.34559661
       12.32413       70.00299426        1.41859579
       12.42383       70.90164176        1.35502073
       12.52352       79.71748099        1.42814217
       12.62321       85.35431245        1.51965977
       12.72291      101.82835178        1.61558232
       12.82260      113.57186548        1.85471426
       12.92229      119.64436159        1.72856824
       13.02199      142.70833259        1.87337892
       13.12168      174.51974358        2.10866830
       13.22137      205.94891944        2.36588433
       13.32107      241.09595864        2.64357949
       13.42076      282.58965169        2.75703786
       13.52045      312.75729987        2.93682600
       13.62015      336.91173807        2.95608376
       13.71984      332.90948396        3.06299740
       13.81953      306.35576346        2.98748753
       13.91923      279.89018737        2.68260293
       14.01892      228.77343196        2.36061221
       14.11861      178.79579927        2.17653361
       14.21831      139.89630207        1.92642587
       14.31800      110.34588950        1.80054690
       14.41769       86.82308653        1.53762597
       14.51739       76.06344313        1.40400120
       14.61708       65.93854313        1.31027392
       14.71677       57.92982206        1.24793227
       14.81647       55.55110264        1.28012621
       14.91616       53.81284507        1.15861000
       15.01585       50.83612023        1.14629728
       15.11555       51.57618022        1.16802491
       15.21524       51.36740295        1.20138124
       15.31493       50.37189600        1.21832923
       15.41463       50.57313401        1.18198163
       15.51432       50.20904630        1.14121330
       15.61402       49.58851369        1.16283283
       15.71371       49.58968086        1.15485910
       15.81340       50.51196881        1.21255158
       15.91310       49.32315222        1.16418772
       16.01279       47.93622075        1.09886054
       16.11248       49.49447071        1.14662524
       16.21218       49.16988821        1.17451701
       16.31187       49.57375976        1.18223123
       16.41156       50.70846935        1.17346749
       16.51126       49.74076530        1.18182746
       16.61095       51.05399257        1.15455004
       16.71064       53.13977482        1.21522794
       16.81034       51.88296134        1.20435171
       16.91003       56.52895269        1.22106431
       17.00972       57.69034147        1.18424359
       17.10942       60.11244954        1.27778292
       17.20911       63.35691875        1.32353258
       17.30880       67.30262280        1.37613332
       17.40850       71.62364712        1.41947246
       17.50819       76.98156534        1.42918105
       17.60788       76.19070070        1.46591285
       17.70758       75.64346145        1.46662769
       17.80727       77.20289085        1.50004383
       17.90696       70.95272950        1.34424808
       18.00666       68.53781140        1.34426739
       18.10635       64.44360121        1.26771414
       18.20604       61.98338168        1.36380677
       18.30574       59.85348530        1.27718508
       18.40543       56.22977445        1.20714131
       18.50512       55.90315109        1.24160494
       18.60482       53.20969537        1.19221420
       18.70451       52.30042981        1.24903374
       18.80420       52.75800928        1.17851990
       18.90390       52.65242248        1.16476744
       19.00359       53.10236783        1.13917491
       19.10328       50.47856148        1.17497258
       19.20298       49.95570997        1.20522050
       19.30267       47.99023685        1.13432210
       19.40237       48.31777377        1.12531771
       19.50206       45.15887297        1.11513869
       19.60175       47.66847951        1.13295873
       19.70145       47.65265976        1.18781463
       19.80114       46.00556697        1.10686573
       19.90083       49.64698379        1.11112135
       20.00053       49.09818180        1.12454737
       20.10022       48.44528370        1.12531587
       20.19991       49.34841172        1.21428887
       20.29961       48.60989808        1.14187386
       20.39930       49.33040542        1.18508496
       20.49899       52.30795637        1.19925158
       20.59869       52.12203841        1.21899820
       20.69838       53.90415416        1.28545710
       20.79807       54.13063038        1.22865151
       20.89777       56.03652568        1.22189523
       20.99746       57.94365601        1.25495257
       21.09715       60.23005420        1.34780113
       21.19685       58.75861124        1.32422850
       21.29654       62.13584524        1.32854007
       21.39623       58.27411959        1.28648620
       21.49593       58.64118092        1.27210261
       21.59562       55.29746819        1.26490026
       21.69531       51.60492268        1.27081198
       21.79501       52.14803127        1.16866362
       21.89470       48.45016884        1.10097558
       21.99439       48.60817965        1.14953075
       22.09409       47.62913111        1.14067543
       22.19378       44.81553684        1.17494555
       22.29347       46.07320937        1.10957640
       22.39317       45.40459892        1.13000436
       22.49286       48.33729611        1.16511552
       22.59255       47.77626896        1.17193108
       22.69225       48.90379406        1.24952000
       22.79194       46.29168148        1.09170377
       22.89163       47.30292565        1.08202515
       22.99133       48.83020774        1.12990120
       23.09102       44.87968960        1.12482499
       23.19072       48.33093118        1.17016906
       23.29041       47.96369140        1.15118576
       23.39010       47.85348827        1.16190410
       23.48980       49.27607659        1.18338810
       23.58949       46.63938910        1.16662271
       23.68918       47.66116628        1.24018836
       23.78888       45.94735557        1.08513632
       23.88857       45.48679725        1.09379495
       23.98826       45.19674446        1.11464499
       24.08796       45.38128748        1.09516348
       24.18765       44.39283429        1.16058508
       24.28734       47.05417477        1.13773730
       24.38704       45.51320855        1.13759227
       24.48673       44.04940294        1.11508923
       24.58642       46.43082940        1.18281452
       24.68612       46.04952516        1.17637550
       24.78581       44.56010412        1.06668139
       24.88550       46.01793963        1.08360357
       24.98520       47.73929175        1.14457907
       25.08489       47.92465505        1.16970493
       25.18458       47.71729139        1.19168077
       25.28428       49.88900172        1.17450264
       25.38397       49.36083147        1.16257233
       25.48366       49.87473209        1.17562070
       25.58336       53.03772864        1.26374366
       25.68305       58.89753390        1.30637021
       25.78274       69.51169110        1.33988016
       25.88244       80.70550936        1.48055052
       25.98213      103.50139324        1.69126179
       26.08182      131.45798651        1.95724837
       26.18152      158.34875976        2.20122822
       26.28121      184.65016692        2.24952946
       26.38090      202.36631847        2.37562199
       26.48060      202.02343051        2.43896480
       26.58029      180.57652638        2.40419171
       26.67998      164.49696915        2.16684981
       26.77968      130.25226416        1.90392779
       26.87937       99.75468059        1.64140702
       26.97907       81.22942046        1.46841082
       27.07876       75.41749994        1.52348489
       27.17845       72.44806776        1.42689020
       27.27815       76.46701842        1.43177572
       27.37784       84.67582580        1.56578523
       27.47753       85.67280891        1.55174592
       27.57723       88.16576168        1.64915854
       27.67692       86.44261586        1.59383030
       27.77661       84.72682076        1.50605760
       27.87631       72.48136967        1.36935451
       27.97600       64.68581977        1.32252455
       28.07569       60.77247193        1.35661943
       28.17539       55.63170059        1.24239997
       28.27508       51.60612153        1.19697947
       28.37477       52.55496810        1.23672741
       28.47447       50.38560417        1.20138434
       28.57416       52.20175743        1.32212701
       28.67385       56.14789329        1.22008841
       28.77355       56.88684930        1.20595433
       28.87324       57.25031753        1.24203097
       28.97293       59.70334947        1.27142654
       29.07263       57.75815827        1.36306025
       29.17232       61.07671780        1.27929751
       29.27201       57.93986336        1.26889844
       29.37171       55.84715514        1.28145125
       29.47140       53.61392327        1.24098836
       29.57109       51.02687001        1.28369279
       29.67079       51.39579057        1.17289674
       29.77048       48.77309386        1.14512428
       29.87017       49.34180707        1.12919729
       29.96987       49.37670883        1.18441537
       30.06956       51.89088210        1.25277487
       30.16925       47.51112249        1.12851359
       30.26895       50.42823253        1.16720339
       30.36864       50.80643818        1.19073336
       30.46833       51.91673922        1.21591643
       30.56803       53.99493609        1.30995734
       30.66772       57.94608604        1.26299134
       30.76742       62.86751010        1.28940613
       30.86711       65.78738051        1.34541687
       30.96680       66.97434534        1.36539439
       31.06650       66.31901292        1.42463407
       31.16619       64.43643729        1.32026668
       31.26588       61.01532583        1.27687706
       31.36558       58.51108320        1.26666816
       31.46527       60.63275136        1.34176819
       31.56496       62.68626420        1.38630595
       31.66466       67.02585041        1.34077133
       31.76435       72.50222426        1.39324919
       31.86404       79.58706549        1.44082314
       31.96374       88.74523852        1.55717612
       32.06343       87.97157923        1.60432241
       32.16312       87.54135968        1.50401624
       32.26282       79.74691621        1.47023161
       32.36251       73.84377091        1.47115370
       32.46220       65.63158133        1.41148340
       32.56190       61.85070487        1.39439594
       32.66159       56.69668633        1.26760706
       32.76128       54.08510329        1.21019037
       32.86098       53.48618781        1.22152225
       32.96067       52.27360019        1.22267506
       33.06036       53.09494890        1.25476529
       33.16006       53.45000914        1.18564475
       33.25975       55.00133794        1.24186893
       33.35944       54.48611037        1.24271472
       33.45914       55.86383333        1.30625392
       33.55883       57.98981191        1.33409061
       33.65852       62.02675823        1.28676587
       33.75822       64.97064927        1.31475005
       33.85791       74.69391088        1.41582409
       33.95760       82.00172171        1.52751579
       34.05730       92.50312838        1.60698974
       34.15699      107.21781929        1.70314370
       34.25668      112.86943164        1.74122242
       34.35638      136.20866192        1.96289871
       34.45607      175.14582060        2.34566059
       34.55577      219.96994802        2.50626268
       34.65546      290.68135147        2.76544968
       34.75515      380.47035965        3.22804254
       34.85485      451.18973074        3.49162587
       34.95454      469.81381223        3.67500902
       35.05423      446.34845059        3.70287946
       35.15393      391.57387096        3.25466068
       35.25362      300.16954590        2.89022053
       35.35331      218.04747411        2.52491369
       35.45301      161.12386437        2.26369569
       35.55270      119.79897778        1.89981498
       35.65239       93.78640205        1.62308492
       35.75209       81.04637165        1.49760752
       35.85178       75.23659484        1.44088303
       35.95147       71.78051168        1.44044630
       36.05117       68.72962108        1.38039720
       36.15086       65.36247739        1.29425990
       36.25055       62.86858251        1.32606028
       36.35025       54.24983318        1.25557455
       36.44994       52.55082881        1.26039420
       36.54963       52.47665437        1.20907355
       36.64933       52.49590928        1.19125346
       36.74902       55.07824227        1.23306529
       36.84871       51.65964738        1.18542792
       36.94841       50.83872745        1.27170609
       37.04810       50.93065438        1.12234137
       37.14779       51.20794319        1.14848078
       37.24749       50.38041258        1.17081747
       37.34718       50.05405970        1.19677533
       37.44687       50.10748705        1.28626190
       37.54657       50.97926043        1.18448017
       37.64626       48.82641264        1.15466785
       37.74595       49.48169003        1.14424209
       37.84565       50.02124426        1.21731763
       37.94534       49.79654479        1.23733983
       38.04503       50.11692943        1.12194429
       38.14473       49.42556870        1.12507015
       38.24442       52.01563126        1.17537373
       38.34412       48.94347965        1.19186677
       38.44381       49.95273427        1.30202203
       38.54350       51.33149076        1.17660322
       38.64320       51.59026662        1.17600072
       38.74289       51.46599678        1.18994045
       38.84258       57.60581351        1.26223719
       38.94228       57.67042795        1.32466476
       39.04197       60.74519752        1.22601438
       39.14166       66.15549171        1.33118383
       39.24136       69.48972698        1.36077491
       39.34105       70.44233334        1.41787607
       39.44074       74.17664679        1.58723545
       39.54044       73.45398318        1.41223421
       39.64013       70.14430659        1.37568433
       39.73982       66.69345118        1.34670372
       39.83952       62.53585902        1.29506682
       39.93921       59.94184853        1.34429257
       40.03890       57.29534728        1.20293967
       40.13860       55.37216975        1.18097299
       40.23829       54.84411866        1.21688697
       40.33798       55.08477282        1.25758143
       40.43768       55.34703788        1.31891340
       40.53737       55.87825863        1.23000497
       40.63706       56.10812660        1.25842080
       40.73676       57.24237819        1.26910873
       40.83645       59.50563222        1.30485976
       40.93614       66.54621490        1.40335901
       41.03584       69.17721942        1.34661658
       41.13553       75.51906326        1.40877372
       41.23522       88.88846999        1.56596018
       41.33492      105.82726054        1.78916435
       41.43461      124.76810270        2.00547968
       41.53430      145.42152464        2.02812525
       41.63400      173.47387194        2.26458431
       41.73369      189.75681533        2.31725219
       41.83338      195.37108610        2.41420624
       41.93308      198.46414618        2.41175214
       42.03277      201.44357577        2.22085926
       42.13247      217.47376750        2.42558593
       42.23216      257.26244219        2.64392449
       42.33185      325.85137848        3.19679782
       42.43155      426.14658338        3.60812534
       42.53124      519.87887602        3.86417142
       42.63093      603.34224645        4.17694264
       42.73063      646.82548812        4.34833129
       42.83032      627.95932848        4.35916500
       42.93001      556.17432288        3.94281079
       43.02971      428.56419080        3.26170320
       43.12940      300.27157590        2.77960558
       43.22909      206.29430735        2.41859471
       43.32879      145.30132565        2.13700226
       43.42848      109.79755324        1.81652878
       43.52817       84.75728805        1.52680477
       43.62787       71.24864617        1.39513942
       43.72756       62.51522046        1.33764901
       43.82725       64.37669323        1.41764453
       43.92695       58.20397543        1.22215957
       44.02664       59.63290912        1.23125417
       44.12633       59.13567061        1.27180621
       44.22603       56.76861268        1.29690710
       44.32572       56.27954800        1.36096672
       44.42541       54.20605309        1.27513172
       44.52511       58.87545434        1.29338667
       44.62480       58.16355858        1.30368309
       44.72449       60.26932967        1.28613034
       44.82419       62.62901397        1.47125470
       44.92388       67.79169210        1.27679130
       45.02357       74.61035693        1.35063267
       45.12327       79.12614546        1.43263056
       45.22296       91.30242894        1.57968318
       45.32265      110.41039182        1.92218481
       45.42235      127.00465943        1.87736816
       45.52204      162.89897701        2.10628965
       45.62174      209.93756430        2.43724386
       45.72143      262.57505293        2.72941643
       45.82112      295.59952648        3.17314036
       45.92082      315.73674941        2.78590159
       46.02051      307.89898806        2.80919970
       46.12020      267.88616118        2.62560880
       46.21990      211.16978514        2.44545249
       46.31959      172.83055184        2.38663985
       46.41928      126.66752738        1.88485630
       46.51898       96.03498946        1.64932758
       46.61867       76.75272040        1.46668584
       46.71836       66.55871379        1.40086607
       46.81806       59.37872335        1.37193454
       46.91775       57.08102139        1.17255752
       47.01744       58.93477463        1.22000015
       47.11714       60.28182294        1.26210248
       47.21683       60.89141751        1.30578729
       47.31652       64.24134224        1.46325679
       47.41622       72.68316257        1.46697064
       47.51591       85.06253927        1.59022551
       47.61560      104.43450614        1.74793858
       47.71530      127.75464176        1.95509554
       47.81499      153.58496174        2.19892416
       47.91468      183.36893226        2.10348552
       48.01438      210.89484136        2.25857241
       48.11407      221.60149881        2.40249568
       48.21376      213.76624735        2.46297226
       48.31346      191.16289308        2.41042764
       48.41315      165.22128985        2.08731223
       48.51284      128.00087255        1.89643372
       48.61254      101.08051458        1.67736832
       48.71223       80.32578230        1.52177141
       48.81192       68.79706286        1.40476898
       48.91162       58.27425170        1.15878664
       49.01131       54.82396637        1.16336364
       49.11100       53.30246640        1.18844218
       49.21070       52.83292381        1.24222318
       49.31039       48.19208489        1.22084448
       49.41009       49.29654620        1.16650715
       49.50978       49.79631862        1.19668683
       49.60947       51.55820401        1.22666311
       49.70917       48.54361862        1.23426554
       49.80886       48.67806906        1.20291417
       49.90855       50.56046003        1.11683765
       50.00825       52.26258422        1.15953406
       50.10794       50.67691869        1.16772873
       50.20763       51.76861311        1.23312452
       50.30733       51.14467312        1.28384734
       50.40702       53.43618646        1.23072383
       50.50671       49.99357716        1.19377047
       50.60641       54.52854964        1.24870490
       50.70610       56.29544801        1.30560348
       50.80579       56.33978855        1.28888365
       50.90549       55.15929221        1.14975131
       51.00518       54.12811605        1.14900972
       51.10487       55.04062136        1.19772987
       51.20457       55.13359829        1.27617156
       51.30426       57.29609093        1.29428955
       51.40395       57.01785199        1.23777025
       51.50365       55.46244344        1.23464569
       51.60334       56.87655489        1.27504191
       51.70303       59.92949431        1.39003713
       51.80273       58.86963517        1.26366757
       51.90242       59.35766848        1.18556110
       52.00211       57.84401069        1.17581907
       52.10181       62.04026425        1.25644869
       52.20150       62.33471276        1.38698685
       52.30119       62.88019181        1.34194197
       52.40089       62.93671726        1.32152521
       52.50058       60.20844748        1.31685645
       52.60027       58.91257870        1.32033943
       52.69997       60.67495528        1.46854850
       52.79966       57.18145804        1.19843607
       52.89935       60.12270063        1.18583696
       52.99905       64.09643166        1.24452096
       53.09874       73.87706493        1.37950904
       53.19844       85.73606311        1.70226281
       53.29813      102.61847993        1.65570650
       53.39782      120.59360737        1.85756534
       53.49752      145.06494291        2.04796916
       53.59721      162.49247053        2.16683768
       53.69690      172.51360286        2.45041037
       53.79660      180.86477330        2.10226544
       53.89629      172.23672353        2.02877440
       53.99598      153.93236514        1.96368763
       54.09568      135.90528727        1.92582615
       54.19537      118.25549357        1.95826499
       54.29506      105.68443253        1.70021540
       54.39476       95.82663165        1.63116778
       54.49445       89.37644421        1.57622365
       54.59414       83.62518559        1.54766154
       54.69384       82.09416726        1.63582517
       54.79353       82.43763528        1.40575433
       54.89322       78.38553494        1.36566696
       54.99292       75.72523459        1.38150188
       55.09261       69.72311406        1.37831780
       55.19230       67.48903028        1.45618031
       55.29200       62.79486841        1.30716788
       55.39169       63.29882319        1.35422925
       55.49138       58.72694884        1.29938296
       55.59108       57.85024900        1.33098010
       55.69077       53.88589730        1.31813074
       55.79046       54.04025600        1.15407238
       55.89016       54.17150392        1.15271772
       55.98985       53.85058317        1.15665228
       56.08954       59.72138623        1.25846710
       56.18924       59.19950067        1.35215134
       56.28893       65.95203695        1.30644467
       56.38862       75.30032726        1.44431997
       56.48832       85.28623213        1.56391090
       56.58801       98.42560840        1.72923423
       56.68770      103.83093468        1.83328503
       56.78740      112.12287903        1.63083495
       56.88709      115.81606172        1.67424106
       56.98679      111.79248126        1.64623832
       57.08648      106.24939480        1.70114509
       57.18617       93.75006770        1.65403502
       57.28587       84.85780142        1.46998797
       57.38556       75.12307385        1.47195653
       57.48525       67.07921650        1.41732886
       57.58495       61.27571799        1.38544391
       57.68464       56.59806563        1.34293049
       57.78433       53.21309401        1.13899657
       57.88403       52.99919831        1.14994857
       57.98372       50.98739805        1.14579128
       58.08341       53.45589832        1.26861138
       58.18311       52.87869143        1.29065482
       58.28280       53.24025563        1.21981806
       58.38249       54.06011791        1.28440863
       58.48219       51.29702383        1.27804646
       58.58188       48.88736558        1.26120546
       58.68157       49.72248403        1.24642194
       58.78127       52.29761044        1.11822562
       58.88096       52.00762482        1.09865648
       58.98065       55.32548036        1.17644386
       59.08035       54.86068350        1.25001962
       59.18004       56.72310695        1.28945234
       59.27973       58.94286238        1.24024559
       59.37943       62.52830813        1.31967051
       59.47912       67.30134569        1.42544523
       59.57881       71.25394779        1.53667365
       59.67851       74.80920368        1.46808727
       59.77820       83.21521928        1.42372795
       59.87789       91.33784751        1.48659796
       59.97759       98.41984093        1.61453073
       60.07728      104.54810857        1.80229800
       60.17697      105.38898014        1.72381179
       60.27667      104.19059849        1.66631165
       60.37636      105.05502510        1.70571772
       60.47605      102.44911531        1.75712273
       60.57575      101.21593451        1.91407434
       60.67544       92.88348731        1.57491939
       60.77514       86.58595877        1.44537756
       60.87483       78.53950463        1.34958935
       60.97452       70.55924264        1.34730790
       61.07422       67.82586954        1.48382796
       61.17391       65.82221859        1.26613474
       61.27360       64.79114234        1.30073902
       61.37330       66.65579277        1.36834305
       61.47299       65.55414474        1.41657045
       61.57268       68.97837791        1.65262851
       61.67238       67.74267483        1.33475158
       61.77207       70.78482728        1.32896029
       61.87176       70.18471199        1.30854330
       61.97146       68.31477439        1.34023938
       62.07115       69.43783126        1.53039773
       62.17084       66.69688627        1.31396164
       62.27054       65.73743951        1.36011308
       62.37023       60.37833563        1.35516687
       62.46992       59.17556247        1.38752422
       62.56962       58.25596912        1.54619071
       62.66931       57.44735604        1.23688807
       62.76900       58.88734347        1.22063006
       62.86870       61.02061121        1.21547390
       62.96839       68.65011832        1.33063473
       63.06808       74.22165910        1.53993167
       63.16778       84.15018499        1.45594386
       63.26747       98.36368589        1.62963804
       63.36716      117.82344424        1.85209239
       63.46686      137.11779279        2.05919390
       63.56655      152.30773937        2.30672541
       63.66624      176.12914354        2.10995654
       63.76594      196.11430436        2.16397116
       63.86563      208.25477618        2.22372984
       63.96532      212.72401041        2.35191375
       64.06502      197.58864762        2.42696532
       64.16471      179.55947287        2.13871752
       64.26440      152.89857356        2.05281030
       64.36410      128.74603360        1.92044111
       64.46379      107.97636939        1.85893861
       64.56349       90.55542173        1.73189126
       64.66318       83.72299737        1.45744876
       64.76287       69.29850413        1.30916166
       64.86257       62.94211544        1.24564059
       64.96226       59.41563905        1.26761225
       65.06195       56.88311357        1.34107908
       65.16165       52.97600604        1.16733173
       65.26134       51.24087282        1.17486587
       65.36103       53.77338143        1.25599053
       65.46073       55.23863104        1.31488032
       65.56042       54.98722870        1.37017114
       65.66011       55.74548997        1.20297286
       65.75981       56.09118414        1.19463915
       65.85950       59.50263847        1.22272092
       65.95919       59.88614785        1.28405606
       66.05889       64.59215966        1.37956918
       66.15858       72.03766326        1.38572505
       66.25827       79.60466238        1.50677937
       66.35797       90.83718269        1.67722765
       66.45766      110.86744196        1.96990806
       66.55735      121.67681927        2.06358775
       66.65705      134.76625218        1.92692649
       66.75674      153.18621116        2.00280129
       66.85643      162.52782241        2.03978797
       66.95613      170.13276904        2.17020660
       67.05582      171.92854847        2.19799486
       67.15551      169.08102699        2.07404421
       67.25521      157.61309198        2.10117635
       67.35490      140.02038420        2.08395854
       67.45459      123.62636243        2.06442435
       67.55429      112.38263266        1.88557719
       67.65398       92.07642682        1.52916792
       67.75367       79.16550116        1.40595532
       67.85337       74.54150497        1.38099854
       67.95306       75.42864365        1.48558534
       68.05275       79.22716120        1.44186492
       68.15245       89.62234269        1.52082487
       68.25214       96.44960744        1.67479892
       68.35184      106.52301678        1.83479536
       68.45153      110.65023357        2.05871661
       68.55122      118.86773476        1.83854233
       68.65092      127.48334440        1.77502626
       68.75061      128.47903682        1.80023978
       68.85030      133.10214895        1.86785648
       68.95000      129.69907616        2.09022253
       69.04969      117.61488455        1.68035541
       69.14938      102.84931891        1.61513562
       69.24908       87.81881842        1.59323201
       69.34877       77.16765195        1.54430452
       69.44846       73.95330267        1.75356568
       69.54816       64.48291684        1.27638139
       69.64785       59.41859362        1.20788420
       69.74754       55.00313964        1.17371242
       69.84724       50.34852729        1.15208292
       69.94693       49.85761733        1.29383856
       70.04662       49.07589721        1.05558315
       70.14632       47.06555411        1.07487034
       70.24601       47.14530376        1.15187677
       70.34570       46.89866719        1.21570379
       70.44540       47.57322869        1.44268518
       70.54509       44.79838360        1.09570376
       70.64478       51.40279244        1.17229878
       70.74448       49.74595723        1.17146189
       70.84417       48.69633430        1.20266952
       70.94386       52.51116597        1.37111471
       71.04356       52.74322183        1.13710723
       71.14325       50.80933164        1.15971091
       71.24294       53.81836165        1.25594770
       71.34264       56.22348690        1.36128389
       71.44233       52.63844951        1.46963238
       71.54202       52.75789509        1.19782635
       71.64172       55.70971298        1.19745893
       71.74141       55.54037456        1.17393409
       71.84110       53.73049146        1.19516652
       71.94080       54.89636801        1.31646646
       72.04049       54.10146122        1.10613113
       72.14019       54.53294930        1.15708719
       72.23988       53.60970689        1.20034211
       72.33957       49.10659319        1.28303927
       72.43927       52.36311056        1.45861583
       72.53896       50.30127831        1.14615549
       72.63865       51.57144156        1.13442216
       72.73835       54.57717559        1.14146717
       72.83804       61.86426341        1.28362460
       72.93773       61.59803037        1.36054136
       73.03743       63.71939339        1.20121662
       73.13712       68.22512867        1.31100441
       73.23681       69.53485372        1.39055004
       73.33651       69.38036953        1.52838619
       73.43620       64.42940235        1.59502151
       73.53589       67.10366046        1.31324214
       73.63559       68.83287603        1.30924897
       73.73528       69.61697510        1.31073860
       73.83497       65.10736209        1.34362470
       73.93467       65.00366472        1.41370835
       74.03436       62.46192227        1.22631347
       74.13405       60.60891821        1.25926256
       74.23375       58.39606352        1.28743445
       74.33344       55.01974757        1.37554299
       74.43313       56.50081823        1.44650708
       74.53283       56.72644968        1.23147013
       74.63252       55.25613372        1.20653358
       74.73221       55.21157637        1.20014180
       74.83191       58.65573516        1.31235845
       74.93160       63.84193755        1.38480552
       75.03129       65.71710390        1.24913082
       75.13099       72.16043312        1.35604970
       75.23068       82.97999535        1.51729375
       75.33037       96.14518811        1.79598057
       75.43007      108.83195415        1.93911494
       75.52976      123.05644911        1.79171902
       75.62945      141.65676769        1.92175187
       75.72915      154.70867113        2.00111044
       75.82884      166.36695054        2.23498629
       75.92854      167.83320996        2.10731117
       76.02823      174.12962239        2.01344082
       76.12792      174.50718464        2.10668877
       76.22762      166.06216187        2.16755287
       76.32731      157.72459651        2.38505275
       76.42700      150.94062491        2.20159939
       76.52670      140.97370320        1.96221870
       76.62639      119.93431995        1.78575327
       76.72608      104.98002071        1.64222172
       76.82578      100.84402851        1.85443578
       76.92547       92.30164214        1.42066152
       77.02516       96.43338841        1.50527210
       77.12486      106.88400197        1.66533787
       77.22455      116.66070436        1.85313114
       77.32424      128.54959029        2.39074992
       77.42394      138.32848282        1.98085627
       77.52363      150.26619842        1.99583936
       77.62332      158.97153604        2.04400766
       77.72302      170.92969028        2.12510318
       77.82271      176.19944308        2.53075153
       77.92240      179.24186660        1.95474583
       78.02210      175.28188564        2.08552864
       78.12179      166.72522037        2.17178327
       78.22148      156.42719380        2.22378622
       78.32118      144.92644795        2.48279083
       78.42087      123.32928587        1.80124966
       78.52056      109.31413904        1.75045607
       78.62026       94.59297676        1.61480764
       78.71995       80.76983065        1.49652421
       78.81964       76.76911031        1.62952545
       78.91934       66.64710785        1.17611950
       79.01903       59.12248415        1.21421236
       79.11872       57.55863147        1.24679986
       79.21842       57.45377542        1.32886449
       79.31811       61.39161701        1.54753688
       79.41780       56.23645692        1.20129225
       79.51750       56.97197777        1.22863293
       79.61719       57.04309080        1.23302040
       79.71689       60.08869578        1.31403830
       79.81658       58.74676060        1.37723370
       79.91627       60.44504730        1.18423826
       80.01597       61.20233476        1.22485846
       80.11566       62.88188297        1.29794858
       80.21535       64.97544251        1.41045677
       80.31505       65.43927232        1.68269539
       80.41474       65.81484851        1.29673153
       80.51443       67.50954923        1.30764493
       80.61413       68.88256784        1.36473805
       80.71382       70.12044023        1.42444353
       80.81351       75.72578337        1.66365258
       80.91321       73.77528753        1.21076488
       81.01290       81.91339644        1.37747221
       81.11259       94.57268289        1.59792719
       81.21229      108.01683118        1.84759956
       81.31198      118.60881441        2.16000732
       81.41167      140.60096522        1.84221438
       81.51137      163.92016789        2.04726154
       81.61106      182.26457793        2.25493014
       81.71075      207.39992387        2.49109871
       81.81045      226.26899853        2.75781891
       81.91014      263.25416055        2.28959906
       82.00983      301.13377340        2.62015107
       82.10953      325.56446424        3.04973554
       82.20922      351.22466281        3.52556403
       82.30891      358.61339038        3.73615679
       82.40861      370.70076580        3.09021619
       82.50830      362.08307111        3.04528593
       82.60799      368.04431348        3.30799746
       82.70769      356.83464563        3.54338494
       82.80738      348.98695348        3.34725662
       82.90707      328.02341944        2.63342743
       83.00677      303.37998798        2.69655342
       83.10646      275.65817494        3.02207713
       83.20615      257.26537459        3.24821731
       83.30585      236.26912342        2.94740157
       83.40554      198.90028756        2.24606258
       83.50524      168.82556793        2.01769124
       83.60493      139.23416330        2.01717553
       83.70462      122.39534870        2.13192929
       83.80432      106.01329906        1.73339404
       83.90401       87.38373158        1.31968182
       84.00370       76.37515433        1.28666692
       84.10340       70.28336562        1.47490347
       84.20309       66.17078295        1.73733076
       84.30278       65.95997547        1.41077363
       84.40248       63.23909407        1.21910484
       84.50217       62.24094094        1.18650722
       84.60186       61.80954198        1.33697740
       84.70156       63.13344930        1.76827448
       84.80125       60.22483555        1.20228771
       84.90094       62.92640418        1.10410015
       85.00064       63.50199303        1.14276663
       85.10033       62.79299560        1.34483130
       85.20002       64.36436791        2.33533240
       85.29972       64.51556982        1.23335508
       85.39941       62.11413322        1.23373330
       85.49910       66.86415633        1.24501145
       85.59880       64.91153449        1.37928291
       85.69849       67.60778401        2.52743663
       85.79818       66.24991214        1.17951301
       85.89788       66.00143387        1.14915959
       85.99757       64.83505852        1.17023658
       86.09726       66.36816989        1.35947065
       86.19696       63.83730310        2.56057295
       86.29665       64.90249240        1.22184869
       86.39634       66.79716299        1.26115139
       86.49604       64.58645835        1.22125702
       86.59573       61.06991316        1.26515627
       86.69542       54.94060612        2.50839229
       86.79512       58.19156590        1.07174338
       86.89481       59.87231719        1.07185503
       86.99451       55.56357293        1.07013741
       87.09420       56.10258461        1.19929183
       87.19389       56.32633294        2.84653999
       87.29359       54.79211502        1.13774489
       87.39328       52.47351620        1.12836286
       87.49297       52.21459456        1.09266727
       87.59267       49.34188295        1.08296162
       87.69236       50.68987394        3.28466119
       87.79205       49.45271865        1.01060441
       87.89175       50.93907882        1.01747511
       87.99144       51.33735572        1.06437484
       88.09113       50.95860739        1.12710669
       88.19083       48.10681035        5.79446899
       88.29052       53.09873810        1.15786835
       88.39021       49.33422685        1.12335975
       88.48991       50.53765095        1.09122390
       88.58960       50.08048976        1.05194852
       88.68929       65.21535104        9.30425266
       88.78899       50.28772268        1.01748326
       88.88868       49.78900571        0.99029620
       88.98837       48.98760110        1.02164773
       89.08807       49.17752583        1.04848106
       89.18776       51.02702553        8.69053157
       89.28745       47.46231627        1.04646262
       89.38715       48.30332101        1.06656835
       89.48684       50.09023233        1.06294447
       89.58653       53.57511282        1.07709567
       89.68623       68.47153249        9.87654319
       89.78592       59.73279548        1.10533772
       89.88561       61.62111362        1.10070405
       89.98531       65.77236449        1.16621704
       90.08500       74.83500978        1.29056924
       90.18469       62.19856183        9.80838020
       90.28439       82.97161225        1.38824572
       90.38408       90.15652554        1.47173505
       90.48377       96.78646658        1.49656757
       90.58347       99.25177266        1.49177666
       90.68316      105.70131271       11.99448805
       90.78286      101.34411842        1.44303754
       90.88255      102.43842493        1.41173292
       90.98224      103.64764723        1.46927579
       91.08194      105.46376301        1.53081399
       91.18163      110.53514143       12.50791740
       91.28132      104.71883492        1.57050398
       91.38102       98.75107395        1.56524338
       91.48071       95.81114256        1.50378150
       91.58040       86.75641191        1.38348213
       91.68010       67.39557179        9.21872543
       91.77979       77.66754454        1.25620398
       91.87948       69.68509281        1.17119981
       91.97918       63.12861449        1.15729103
       92.07887       63.22417626        1.20644883
       92.17856       56.49248769        8.66896210
       92.27826       62.21713505        1.23601033
       92.37795       61.59462802        1.25895799
       92.47764       64.50392380        1.22315381
       92.57734       69.30955950        1.23020014
       92.67703       73.47657259        8.22329817
       92.77672       73.84404673        1.22402901
       92.87642       83.55165655        1.27757359
       92.97611       91.19831263        1.39412470
       93.07580      100.88362595        1.67406590
       93.17550      103.88424339        3.19471214
       93.27519      100.43554188        1.53956893
       93.37488      106.38646506        1.54059025
       93.47458      104.25663391        1.54174367
       93.57427      109.96727478        1.83098042
       93.67396      109.60746023        2.47033145
       93.77366      112.16728696        1.54823260
       93.87335      113.02795231        1.48457261
       93.97304      104.52583865        1.48734700
       94.07274      100.23674602        1.89070132
       94.17243       98.91935587        2.14300526
       94.27212       91.05326465        1.53094446
       94.37182       86.73331262        1.45601084
       94.47151       77.80082204        1.32022068
       94.57121       71.83886665        1.67393879
       94.67090       67.79239481        1.64470990
       94.77059       67.87426460        1.27932693
       94.87029       66.38820797        1.15047732
       94.96998       60.64723370        1.11331839
       95.06967       59.67396201        1.27303727
       95.16937       61.18084388        1.76462610
       95.26906       59.65919894        1.34608914
       95.36875       60.24533307        1.22745114
       95.46845       58.52206045        1.16257178
       95.56814       59.41349486        1.34795704
       95.66783       55.93560764        1.46919714
       95.76753       56.38678461        1.21899943
       95.86722       55.35340354        1.02732042
       95.96691       54.32315977        1.05558924
       96.06661       52.67643561        1.33150140
       96.16630       52.88904077        1.42278368
       96.26599       51.73993717        1.26374430
       96.36569       51.22071545        1.12820701
       96.46538       48.71951114        1.06180866
       96.56507       50.30276249        1.33174780
       96.66477       47.04775083        1.25486112
       96.76446       48.85096612        1.14272705
       96.86415       50.57435831        1.00719314
       96.96385       47.85384610        1.01181002
       97.06354       47.85583606        1.36820289
       97.16323       50.23636865        1.34047386
       97.26293       52.25680815        1.28454172
       97.36262       51.82778554        1.18461562
       97.46231       50.76627192        1.07856679
       97.56201       50.96462813        1.37488649
       97.66170       52.14097214        1.24912747
       97.76139       53.11031593        1.14535658
       97.86109       52.80531551        1.03269833
       97.96078       54.88212107        1.07588676
       98.06047       54.41623934        1.48800575
       98.16017       55.23847099        1.33277671
       98.25986       55.07317494        1.27112522
       98.35956       53.89154239        1.18706314
       98.45925       55.94619432        1.12900591
       98.55894       55.42772722        1.46587229
       98.65864       59.49889820        1.30329533
       98.75833       58.66830329        1.20918823
       98.85802       64.54212325        1.18445442
       98.95772       64.43991335        1.17561182
       99.05741       68.23419138        1.67962186
       99.15710       72.72287765        1.49145952
       99.25680       76.68855039        1.48401969
       99.35649       77.22763541        1.41839983
       99.45618       82.67871715        1.36793593
       99.55588       84.68421190        1.84997846
       99.65557       84.54597538        1.52495605
       99.75526       89.60428501        1.47168862
       99.85496       89.39222430        1.39905120
       99.95465       87.75924121        1.35893791
      100.05434       89.38110885        1.95383277
      100.15404       89.64858487        1.64817655
      100.25373       93.00020855        1.65879456
      100.35342       91.79064768        1.64146137
      100.45312       88.33050882        1.46915480
      100.55281       87.08554599        1.91587104
      100.65250       84.62768451        1.53846869
      100.75220       79.79623633        1.38354530
      100.85189       75.34443993        1.28437427
      100.95158       75.03289539        1.24745759
      101.05128       72.75567646        1.75116422
      101.15097       70.93411993        1.42897428
      101.25066       73.94285748        1.44162708
      101.35036       70.44912412        1.41918130
      101.45005       73.65065998        1.36468750
      101.54974       74.46977262        1.70923936
      101.64944       74.58914426        1.39564948
      101.74913       78.88832216        1.35257400
      101.84882       83.07261282        1.35128753
      101.94852       83.31383670        1.42547753
      102.04821       87.76688839        1.76250665
      102.14791       88.28574071        1.59314024
      102.24760       89.75062657        1.59281990
      102.34729       90.04699868        1.58895303
      102.44699       93.10681756        1.64399216
      102.54668       94.66329124        1.73952833
      102.64637       91.60439389        1.52814039
      102.74607       96.63931474        1.49507723
      102.84576       93.17833886        1.44000981
      102.94545       94.36936067        1.65061717
      103.04515       95.53467976        1.75821403
      103.14484       91.96573874        1.61153106
      103.24453       90.91499096        1.57752004
      103.34423       91.68087877        1.57136959
      103.44392       86.27943416        1.65093715
      103.54361       88.05054448        1.62027662
      103.64331       84.47512696        1.44444644
      103.74300       83.51301304        1.36989258
      103.84269       82.79060467        1.34030989
      103.94239       80.26641009        1.58579212
      104.04208       81.51370770        1.54609606
      104.14177       80.41239702        1.49395946
      104.24147       81.31474431        1.50160184
      104.34116       84.13660949        1.53707007
      104.44085       81.16286854        1.71443087
      104.54055       79.39485852        1.53513462
      104.64024       79.23608318        1.44156639
      104.73993       76.24880725        1.34931245
      104.83963       74.89879344        1.28835595
      104.93932       73.00087351        1.54184896
      105.03901       70.14082853        1.42391703
      105.13871       68.98423769        1.35965297
      105.23840       67.30609282        1.34216289
      105.33809       64.24872485        1.31892385
      105.43779       61.77530082        1.50466086
      105.53748       61.65814950        1.34807967
      105.63717       59.48800454        1.21364006
      105.73687       54.17584999        1.10202058
      105.83656       52.66902361        1.05873869
      105.93626       54.93874425        1.37039967
      106.03595       52.25726088        1.21122586
      106.13564       52.01161967        1.16790523
      106.23534       53.58950579        1.20015337
      106.33503       50.33548155        1.17476120
      106.43472       48.94237464        1.36941495
      106.53442       49.56494497        1.19870185
      106.63411       48.09930146        1.07262641
      106.73380       49.53491071        1.03751076
      106.83350       48.81778429        1.01457047
      106.93319       49.07728214        1.31870866
      107.03288       50.19086187        1.18198379
      107.13258       49.34688314        1.13755845
      107.23227       52.16719743        1.18670677
      107.33196       51.04910270        1.17065236
      107.43166       51.82139217        1.41722765
      107.53135       54.25565818        1.25127955
      107.63104       55.91501707        1.15672666
      107.73074       58.64660349        1.13666986
      107.83043       61.62088889        1.15052918
      107.93012       63.55249092        1.54577362
      108.02982       64.35982941        1.36155789
      108.12951       64.67614304        1.29797808
      108.22920       65.69157271        1.28719844
      108.32890       68.35995654        1.30068441
      108.42859       68.15910091        1.64833190
      108.52828       70.73246704        1.42447385
      108.62798       71.58473590        1.29944762
      108.72767       72.85824275        1.25835594
      108.82736       73.29852347        1.28998244
      108.92706       73.71265328        1.63838604
      109.02675       74.45759918        1.44057524
      109.12644       73.87202589        1.40045254
      109.22614       73.99455033        1.40272246
      109.32583       73.37439734        1.52207927
      109.42552       71.69211182        1.58690307
      109.52522       72.76738752        1.44244971
      109.62491       71.34205426        1.35844135
      109.72461       65.75492930        1.24661001
      109.82430       63.44110155        1.14373281
      109.92399       61.15545788        1.45991430
      110.02369       62.21213383        1.28950348
      110.12338       58.63109787        1.24352692
      110.22307       58.42721570        1.23206388
      110.32277       56.00935947        1.23172492
      110.42246       54.48483356        1.47703474
      110.52215       52.66886144        1.22989257
      110.62185       53.55901452        1.16891252
      110.72154       52.47982864        1.07945556
      110.82123       49.82355716        1.08613960
      110.92093       52.15819135        1.29623976
      111.02062       52.12308121        1.19713187
      111.12031       54.49118857        1.23326666
      111.22001       53.96879561        1.20432662
      111.31970       55.44859273        1.32489406
      111.41939       56.92131643        1.38911738
      111.51909       54.04307934        1.22804911
      111.61878       58.32335981        1.20196366
      111.71847       61.68890837        1.15023880
      111.81817       64.49722208        1.27663832
      111.91786       66.22649658        1.36147793
      112.01755       68.09403124        1.34810796
      112.11725       71.52545092        1.39229030
      112.21694       73.47656070        1.40491141
      112.31663       74.75789536        1.56165342
      112.41633       76.69719205        1.55402810
      112.51602       79.65857095        1.45858547
      112.61571       85.09553588        1.43835270
      112.71541       87.57275415        1.37519415
      112.81510       88.10849382        1.54670571
      112.91479       89.01158136        1.58365978
      113.01449       85.91854455        1.52345280
      113.11418       86.86021547        1.52670944
      113.21387       91.24595843        1.55789981
      113.31357       92.11615250        1.73845180
      113.41326       91.35647921        1.64526239
      113.51296       94.03881967        1.57032024
      113.61265       93.61276211        1.51174263
      113.71234       93.21143554        1.44085620
      113.81204       90.96821185        1.63058601
      113.91173       88.94903552        1.56232361
      114.01142       87.96767665        1.53797887
      114.11112       87.27553779        1.53106684
      114.21081       89.87268711        1.56506129
      114.31050       84.49489917        1.72059589
      114.41020       81.44091343        1.56076066
      114.50989       82.82345918        1.47354916
      114.60958       77.40624671        1.37829111
      114.70928       74.30549859        1.30229295
      114.80897       74.11904580        1.47517633
      114.90866       72.43644665        1.37542444
      115.00836       70.15703988        1.34717583
      115.10805       69.93260212        1.35233459
      115.20774       67.37029024        1.34729393
      115.30744       68.17236222        1.55616505
      115.40713       68.95611043        1.41762922
      115.50682       71.02499129        1.35837909
      115.60652       68.25891806        1.28329644
      115.70621       70.20257086        1.25086204
      115.80590       74.68718486        1.50535663
      115.90560       75.23979436        1.36946984
      116.00529       74.50452257        1.37793149
      116.10498       79.38361859        1.43744257
      116.20468       84.73127631        1.51945192
      116.30437       89.28399316        1.85960185
      116.40406       90.43136788        1.63007423
      116.50376       91.71893878        1.55140921
      116.60345      102.84959346        1.57762822
      116.70314      111.92250177        1.59632492
      116.80284      123.25161801        1.99121525
      116.90253      132.60834556        1.85855420
      117.00222      139.21923562        1.88969282
      117.10192      145.54205916        1.98433379
      117.20161      147.07020058        2.01911497
      117.30131      150.35827118        2.44325664
      117.40100      158.55208032        2.10987873
      117.50069      164.10879671        2.03908696
      117.60039      173.06545817        2.00458513
      117.70008      179.38621785        1.97757811
      117.79977      185.46724307        2.46457051
      117.89947      186.71398973        2.14980703
      117.99916      190.98378274        2.20050475
      118.09885      192.57761658        2.25122284
      118.19855      195.95380676        2.37876208
      118.29824      204.89727646        2.66742524
      118.39793      195.84100779        2.36694177
      118.49763      202.18920249        2.26993933
      118.59732      199.68130014        2.17775485
      118.69701      196.74269545        2.25167161
      118.79671      195.71513499        2.42483936
      118.89640      188.11697465        2.21590257
      118.99609      187.09699651        2.20744398
      119.09579      177.59900833        2.17503062
      119.19548      172.76226594        2.34359108
      119.29517      168.57827389        2.40479824
      119.39487      161.80505966        2.16526927
      119.49456      159.57399562        2.02620178
      119.59425      149.80580611        1.90593250
      119.69395      147.24753882        1.99335847
      119.79364      139.20519452        1.95819847
      119.89333      131.91985841        1.84445293
      119.99303      128.48356698        1.77701971
      120.09272      126.48576202        1.80320775
      120.19241      125.23546918        2.01671021
      120.29211      128.25922297        2.02031562
      120.39180      124.85845618        1.90151728
      120.49149      120.20619522        1.73496341
      120.59119      121.65520573        1.69417761
      120.69088      115.23772025        1.77463610
      120.79057      118.38134998        1.76025986
      120.89027      117.37444089        1.72073881
      120.98996      116.26141202        1.69933293
      121.08966      120.67806843        1.74454085
      121.18935      113.77896414        1.94122407
      121.28904      115.12018151        1.90322200
      121.38874      114.24780353        1.79288273
      121.48843      114.46458018        1.69501172
      121.58812      116.71498687        1.63255688
      121.68782      123.41020373        1.86018325
      121.78751      122.53462787        1.76622178
      121.88720      122.55326079        1.74377354
      121.98690      122.81751271        1.75874833
      122.08659      117.17044566        1.75189404
      122.18628      117.90944398        2.03875225
      122.28598      120.59401931        1.93910662
      122.38567      120.92861730        1.85974528
      122.48536      115.88172846        1.72178963
      122.58506      114.06480089        1.61777849
      122.68475      111.41484415        1.81164654
      122.78444      113.03963235        1.71835630
      122.88414      107.06198012        1.65776175
      122.98383      105.37465321        1.67824572
      123.08352      102.41640176        1.64020287
      123.18322       99.44023876        1.88479862
      123.28291       98.76403417        1.70711957
      123.38260       99.98592720        1.65822763
      123.48230       97.50447099        1.57812624
      123.58199       93.08169814        1.44096668
      123.68168       93.97212981        1.65219010
      123.78138       90.05041319        1.45897813
      123.88107       91.01177277        1.43288102
      123.98076       86.28797599        1.42077342
      124.08046       87.16585830        1.41298063
      124.18015       84.35912709        1.57318391
      124.27984       84.55739254        1.41113510
      124.37954       80.86832972        1.30205208
      124.47923       78.86125221        1.25517055
      124.57893       74.00333620        1.29519193
