        5.04651       64.44597831        2.73627291
        5.14621       66.67845563        2.68258683
        5.24590       58.48103881        2.47554059
        5.34559       60.35568813        2.30673466
        5.44529       60.18668594        2.50598683
        5.54498       55.69750951        2.02752196
        5.64467       59.23461217        2.07289371
        5.74437       59.55124538        1.87619093
        5.84406       57.08992603        1.85888717
        5.94375       53.13674676        1.79072012
        6.04345       55.32167866        1.77557063
        6.14314       57.21626356        1.65344838
        6.24283       55.94261645        1.68883611
        6.34253       58.20990740        1.64325062
        6.44222       51.68138403        1.62999361
        6.54191       51.45089655        1.54070872
        6.64161       54.81397077        1.50669862
        6.74130       55.02369384        1.51568694
        6.84099       51.32646248        1.45309116
        6.94069       52.05530826        1.48544549
        7.04038       56.02204373        1.42265678
        7.14007       53.78973165        1.39102455
        7.23977       54.74843411        1.37887660
        7.33946       53.62191895        1.38545031
        7.43915       55.01065614        1.38503312
        7.53885       54.34082509        1.35114443
        7.63854       55.75127102        1.30811057
        7.73823       51.03671192        1.29937320
        7.83793       56.43612863        1.32251272
        7.93762       54.18137930        1.35162433
        8.03732       53.73143715        1.20710940
        8.13701       54.85662672        1.21422553
        8.23670       52.96814553        1.20989746
        8.33640       55.00935190        1.23341711
        8.43609       53.61674898        1.27299718
        8.53578       54.89192260        1.19979375
        8.63548       53.89254192        1.17511625
        8.73517       55.68441405        1.17179993
        8.83486       55.45453840        1.17221695
        8.93456       53.91138813        1.14979327
        9.03425       53.82543629        1.11523049
        9.13394       56.72512003        1.14714908
        9.23364       55.28985862        1.14902168
        9.33333       54.20958840        1.16086166
        9.43302       54.78386274        1.16745218
        9.53272       55.33232516        1.13366348
        9.63241       54.59686045        1.15790367
        9.73210       56.03641509        1.17077766
        9.83180       56.52958861        1.22531984
        9.93149       55.31156224        1.20331959
       10.03118       54.65934690        1.15095032
       10.13088       55.41193064        1.13110843
       10.23057       54.86452832        1.17861292
       10.33026       56.10314631        1.23202490
       10.42996       56.26352046        1.21688684
       10.52965       54.47815323        1.15957577
       10.62934       56.90856148        1.18810862
       10.72904       54.22371655        1.17678400
       10.82873       55.65743656        1.18629216
       10.92842       54.22150345        1.19045531
       11.02812       55.84463682        1.15107623
       11.12781       56.27650190        1.19698512
       11.22750       56.87426148        1.21533953
       11.32720       57.19975523        1.25160974
       11.42689       57.49841026        1.21134819
       11.52658       57.51582471        1.19709357
       11.62628       56.96096800        1.20420794
       11.72597       56.55650969        1.22539364
       11.82567       57.32038568        1.26798047
       11.92536       58.02161171        1.19386592
       12.02505       59.77171510        1.21745428
       12.12475       59.47294493        1.21329019
       12.22444       64.89315591        1.34413182
       12.32413       67.90526201        1.39601597
       12.42383       70.37499166        1.34892980
       12.52352       81.31706932        1.44138706
       12.62321       87.48131847        1.53742726
       12.72291       97.93319465        1.58296521
       12.82260      114.06799314        1.85738753
       12.92229      121.70146837        1.74217289
       13.02199      143.02531004        1.87406363
       13.12168      170.67242593        2.08344500
       13.22137      205.02242158        2.35870663
       13.32107      243.85458855        2.65692272
       13.42076      277.23765906        2.72825705
       13.52045      317.72283756        2.95834865
       13.62015      332.98542476        2.93622134
       13.71984      335.28575154        3.07187259
       13.81953      311.30587693        3.00979586
       13.91923      281.63751865        2.68911501
       14.01892      227.09007263        2.35000894
       14.11861      177.16645714        2.16483923
       14.21831      137.97248435        1.91156100
       14.31800      111.81400841        1.81120754
       14.41769       89.68779769        1.56176024
       14.51739       74.28974299        1.38639614
       14.61708       62.24612964        1.27192761
       14.71677       60.11863315        1.27042234
       14.81647       56.60781177        1.29131115
       14.91616       54.84237515        1.16879470
       15.01585       52.88641540        1.16838107
       15.11555       50.24367727        1.15190801
       15.21524       51.87915012        1.20645546
       15.31493       50.56703404        1.21976792
       15.41463       51.74967050        1.19479276
       15.51432       53.03686760        1.17213614
       15.61402       48.40677197        1.14797289
       15.71371       51.62863611        1.17755135
       15.81340       49.60878218        1.20071097
       15.91310       48.99745843        1.15944279
       16.01279       52.31587082        1.14726680
       16.11248       48.59352755        1.13524213
       16.21218       51.30383450        1.19891183
       16.31187       52.16899101        1.21197155
       16.41156       49.84356367        1.16249761
       16.51126       49.23182745        1.17485149
       16.61095       50.85299669        1.15139165
       16.71064       51.33639439        1.19344653
       16.81034       53.21271312        1.21881846
       16.91003       53.79662013        1.19016949
       17.00972       56.92849385        1.17547338
       17.10942       60.27835265        1.27858110
       17.20911       63.99822207        1.32923463
       17.30880       64.99612699        1.35121141
       17.40850       70.51847001        1.40735526
       17.50819       71.92491109        1.38015153
       17.60788       75.67121614        1.45977237
       17.70758       80.50225041        1.51210884
       17.80727       75.94420650        1.48657157
       17.90696       72.47750930        1.35765765
       18.00666       69.54909490        1.35316933
       18.10635       65.69419674        1.27904071
       18.20604       59.31684349        1.33301066
       18.30574       59.99438516        1.27772313
       18.40543       57.32993663        1.21801495
       18.50512       53.74253830        1.21635786
       18.60482       53.81898756        1.19813574
       18.70451       53.14344675        1.25814102
       18.80420       55.14051013        1.20402257
       18.90390       50.43860940        1.13906285
       19.00359       52.20401450        1.12860424
       19.10328       50.28393190        1.17180633
       19.20298       49.59517179        1.19993595
       19.30267       49.02616814        1.14567043
       19.40237       47.83761370        1.11884262
       19.50206       47.90965683        1.14783871
       19.60175       47.29930039        1.12769080
       19.70145       47.95101781        1.19063455
       19.80114       47.18600770        1.12017098
       19.90083       47.76222885        1.08892611
       20.00053       48.58622115        1.11779895
       20.10022       47.58451806        1.11439268
       20.19991       47.55951855        1.19109574
       20.29961       50.72103956        1.16560693
       20.39930       51.26304581        1.20724078
       20.49899       53.27792080        1.20944165
       20.59869       51.00311516        1.20487940
       20.69838       53.99560005        1.28557405
       20.79807       53.73394371        1.22319445
       20.89777       55.57647764        1.21592538
       20.99746       58.07019154        1.25537383
       21.09715       58.69795263        1.32946649
       21.19685       58.89234088        1.32473430
       21.29654       58.04652999        1.28291918
       21.39623       58.28655632        1.28564718
       21.49593       56.68295042        1.24964649
       21.59562       55.28868080        1.26383888
       21.69531       53.00045370        1.28696548
       21.79501       50.53519854        1.14951023
       21.89470       47.53770128        1.08969525
       21.99439       47.81897241        1.13926264
       22.09409       46.57207653        1.12704759
       22.19378       45.12237868        1.17807778
       22.29347       46.96975229        1.11950417
       22.39317       47.85678992        1.15933624
       22.49286       48.58350271        1.16720170
       22.59255       44.65948721        1.13207434
       22.69225       46.85609875        1.22206285
       22.79194       46.56643304        1.09411733
       22.89163       46.23958858        1.06894147
       22.99133       45.44341575        1.08905467
       23.09102       46.74728931        1.14719359
       23.19072       46.17376995        1.14280083
       23.29041       46.77916225        1.13597056
       23.39010       46.69363247        1.14681784
       23.48980       47.14005556        1.15648867
       23.58949       45.79769129        1.15513505
       23.68918       46.48600067        1.22382211
       23.78888       47.26634011        1.09981617
       23.88857       44.41137959        1.07992533
       23.98826       44.84932152        1.10949525
       24.08796       45.34538569        1.09389689
       24.18765       43.67919045        1.15031482
       24.28734       44.94801426        1.11105554
       24.38704       47.01699417        1.15541562
       24.48673       44.12105488        1.11515045
       24.58642       44.45643258        1.15643262
       24.68612       45.68752501        1.17083722
       24.78581       44.91483686        1.07011831
       24.88550       45.87446102        1.08108537
       24.98520       48.04793437        1.14741310
       25.08489       47.74873836        1.16666180
       25.18458       46.14186709        1.17088804
       25.28428       48.48300049        1.15689711
       25.38397       48.72457659        1.15415190
       25.48366       50.60771306        1.18335888
       25.58336       53.77293176        1.27153897
       25.68305       59.72425906        1.31454640
       25.78274       67.05780794        1.31490554
       25.88244       78.74558587        1.46125308
       25.98213      104.49829315        1.69816056
       26.08182      131.62991652        1.95706032
       26.18152      160.59602693        2.21529601
       26.28121      192.14609703        2.29360924
       26.38090      198.26519389        2.34932302
       26.48060      197.34510318        2.40835415
       26.58029      183.64742763        2.42298351
       26.67998      159.59799383        2.13236569
       26.77968      131.02889860        1.90820496
       26.87937      100.57814373        1.64696789
       26.97907       81.58491294        1.47052339
       27.07876       74.79767720        1.51602792
       27.17845       73.11430849        1.43238250
       27.27815       77.11933624        1.43681250
       27.37784       83.68233940        1.55533858
       27.47753       87.36924924        1.56594001
       27.57723       86.94072565        1.63634989
       27.67692       85.62811057        1.58505617
       27.77661       81.53797952        1.47615889
       27.87631       74.47237277        1.38707911
       27.97600       62.14725642        1.29521423
       28.07569       59.17231089        1.33754852
       28.17539       53.02904262        1.21195744
       28.27508       52.54930124        1.20699092
       28.37477       50.94550674        1.21664925
       28.47447       49.89254535        1.19456274
       28.57416       55.91270710        1.36745401
       28.67385       52.73996663        1.18144194
       28.77355       56.28062203        1.19857494
       28.87324       57.35007015        1.24217304
       28.97293       59.25971028        1.26571250
       29.07263       58.17105357        1.36690492
       29.17232       61.43737587        1.28211142
       29.27201       55.24677404        1.23799953
       29.37171       56.07974513        1.28315236
       29.47140       54.13236729        1.24604981
       29.57109       49.40196629        1.26205659
       29.67079       49.92412032        1.15504432
       29.77048       50.76120898        1.16742460
       29.87017       47.40567101        1.10590473
       29.96987       49.29027169        1.18247559
       30.06956       48.52911348        1.21045087
       30.16925       49.00940910        1.14535927
       30.26895       49.33632540        1.15357622
       30.36864       48.54193909        1.16291769
       30.46833       54.68578116        1.24709533
       30.56803       54.15095370        1.31085944
       30.66772       58.92973924        1.27274318
       30.76742       63.16417347        1.29147737
       30.86711       62.49755042        1.31019828
       30.96680       62.96745508        1.32272925
       31.06650       65.81918454        1.41815346
       31.16619       63.76809377        1.31237418
       31.26588       61.41342843        1.28008142
       31.36558       62.90418552        1.31256548
       31.46527       60.97533418        1.34454825
       31.56496       64.71730247        1.40761679
       31.66466       65.47191893        1.32405994
       31.76435       73.25255554        1.39941485
       31.86404       80.11712848        1.44454429
       31.96374       85.54253286        1.52748923
       32.06343       90.75663220        1.62844478
       32.16312       87.19023002        1.49984110
       32.26282       81.54976953        1.48572485
       32.36251       69.37189851        1.42460672
       32.46220       69.06393294        1.44699771
       32.56190       61.66960367        1.39128728
       32.66159       58.54751223        1.28723692
       32.76128       53.46757000        1.20232165
       32.86098       52.31859463        1.20714861
       32.96067       51.27072419        1.20992712
       33.06036       53.34372319        1.25675722
       33.16006       53.78937820        1.18851367
       33.25975       53.40369117        1.22270128
       33.35944       54.10958085        1.23745641
       33.45914       57.34784324        1.32255458
       33.55883       57.57175090        1.32824420
       33.65852       61.53896156        1.28070126
       33.75822       67.20901873        1.33629681
       33.85791       73.54025272        1.40372532
       33.95760       81.00717063        1.51702047
       34.05730       92.04705398        1.60178348
       34.15699      100.70673292        1.64899349
       34.25668      110.97828552        1.72515309
       34.35638      143.79564918        2.01583915
       34.45607      171.06975131        2.31612934
       34.55577      220.32812328        2.50645068
       34.65546      294.41003574        2.78141067
       34.75515      389.74111617        3.26575198
       34.85485      442.39602773        3.45383555
       34.95454      467.26840066        3.66201636
       35.05423      446.10395462        3.69909833
       35.15393      387.33227798        3.23411119
       35.25362      300.57702416        2.89006338
       35.35331      219.79534558        2.53326451
       35.45301      158.92128947        2.24630216
       35.55270      113.56120252        1.84789023
       35.65239       91.51011393        1.60192449
       35.75209       81.45154739        1.50022971
       35.85178       81.26790839        1.49670594
       35.95147       72.66735238        1.44826319
       36.05117       67.51563279        1.36705527
       36.15086       63.07540547        1.27034758
       36.25055       59.02359602        1.28372099
       36.35025       56.88933077        1.28489960
       36.44994       55.30573500        1.29215292
       36.54963       53.32545807        1.21792337
       36.64933       52.02183309        1.18494178
       36.74902       53.43803841        1.21357391
       36.84871       52.03525955        1.18884173
       36.94841       53.02408226        1.29786479
       37.04810       51.81473538        1.13121591
       37.14779       54.86399521        1.18802279
       37.24749       53.13313813        1.20158143
       37.34718       50.59296797        1.20230946
       37.44687       48.00377489        1.25792139
       37.54657       49.97501879        1.17182322
       37.64626       48.67177224        1.15195576
       37.74595       50.67076336        1.15707775
       37.84565       50.29534456        1.21973283
       37.94534       48.18067594        1.21610484
       38.04503       50.12801904        1.12121645
       38.14473       50.57659298        1.13727666
       38.24442       50.28436899        1.15469961
       38.34412       50.07058147        1.20464424
       38.44381       52.57385663        1.33485389
       38.54350       49.94357055        1.15964912
       38.64320       50.64287839        1.16422887
       38.74289       54.19016119        1.22021674
       38.84258       55.09465257        1.23337234
       38.94228       59.32167806        1.34255328
       39.04197       60.82107478        1.22585188
       39.14166       65.78686357        1.32644534
       39.24136       70.53896756        1.37002030
       39.34105       71.74983685        1.42995476
       39.44074       73.72748320        1.58119744
       39.54044       71.96259641        1.39669038
       39.64013       70.08912778        1.37409728
       39.73982       65.99600288        1.33859422
       39.83952       59.66003255        1.26385010
       39.93921       60.44577625        1.34893062
       40.03890       58.67273206        1.21644798
       40.13860       54.99466809        1.17603103
       40.23829       56.92062757        1.23885911
       40.33798       57.22222230        1.28087133
       40.43768       56.53013010        1.33197870
       40.53737       58.65489412        1.25936083
       40.63706       58.10511191        1.27973738
       40.73676       59.45799451        1.29255543
       40.83645       61.34425090        1.32394536
       40.93614       64.87014167        1.38444023
       41.03584       66.05376227        1.31472154
       41.13553       75.84166155        1.41072493
       41.23522       88.94761819        1.56529760
       41.33492      103.40915738        1.76711695
       41.43461      123.34818911        1.99242924
       41.53430      146.04414609        2.03097294
       41.63400      175.14436812        2.27388095
       41.73369      191.27974489        2.32490592
       41.83338      195.28732621        2.41186659
       41.93308      197.47350442        2.40383363
       42.03277      200.51590552        2.21400254
       42.13247      212.43961821        2.39512690
       42.23216      260.26481764        2.65759399
       42.33185      331.20098707        3.22112699
       42.43155      420.45178150        3.58058230
       42.53124      523.38135129        3.87477868
       42.63093      619.39029214        4.23133820
       42.73063      645.55998949        4.34072264
       42.83032      618.99442206        4.32346311
       42.93001      555.02459975        3.93569015
       43.02971      424.05905294        3.24161140
       43.12940      301.03043133        2.78111127
       43.22909      196.33588755        2.35690392
       43.32879      143.06293875        2.11871160
       43.42848      105.09555591        1.77556961
       43.52817       80.23536522        1.48415590
       43.62787       70.65075739        1.38819032
       43.72756       69.87038258        1.41344422
       43.82725       63.40627821        1.40580336
       43.92695       60.73474971        1.24761076
       44.02664       60.33487770        1.23757024
       44.12633       57.98020683        1.25831255
       44.22603       57.97900890        1.30972093
       44.32572       57.68787987        1.37691193
       44.42541       56.64406022        1.30261399
       44.52511       56.43661428        1.26524470
       44.62480       59.08351886        1.31299767
       44.72449       56.82217063        1.24770844
       44.82419       62.94907280        1.47390636
       44.92388       67.35458493        1.27168321
       45.02357       69.61055786        1.30337466
       45.12327       77.90063950        1.42035402
       45.22296       93.30604100        1.59582488
       45.32265      109.16114881        1.90974993
       45.42235      125.59981497        1.86545357
       45.52204      166.68162001        2.12928027
       45.62174      209.78514730        2.43451581
       45.72143      258.80606419        2.70737373
       45.82112      297.16413375        3.17932371
       45.92082      310.48954072        2.76009335
       46.02051      304.96959425        2.79343460
       46.12020      265.47877309        2.61161041
       46.21990      216.44261418        2.47439065
       46.31959      174.35772239        2.39548364
       46.41928      131.97255612        1.92282598
       46.51898       96.86937112        1.65527127
       46.61867       78.99335387        1.48692933
       46.71836       64.51092518        1.37800179
       46.81806       61.56582057        1.39601942
       46.91775       57.00461905        1.17087966
       47.01744       57.85447011        1.20780311
       47.11714       56.11833663        1.21663485
       47.21683       60.78266874        1.30362541
       47.31652       67.61014418        1.50017190
       47.41622       74.55576409        1.48471896
       47.51591       87.57688700        1.61247687
       47.61560      105.52362787        1.75576690
       47.71530      130.05671811        1.97130067
       47.81499      153.98765514        2.20017551
       47.91468      188.28813305        2.13027572
       48.01438      211.44765566        2.25987547
       48.11407      219.27061399        2.38783926
       48.21376      212.04688213        2.45105790
       48.31346      187.44247497        2.38475108
       48.41315      167.65317163        2.10121201
       48.51284      126.19615981        1.88147531
       48.61254      100.95385928        1.67504076
       48.71223       81.21832070        1.52909069
       48.81192       68.71980865        1.40291105
       48.91162       60.12165259        1.17619415
       49.01131       56.19802679        1.17701475
       49.11100       49.98893027        1.14990135
       49.21070       52.27247671        1.23465402
       49.31039       51.27074189        1.25841641
       49.41009       52.46308043        1.20260917
       49.50978       48.12554811        1.17547685
       49.60947       48.49115713        1.18858618
       49.70917       48.34489809        1.23079218
       49.80886       50.10546907        1.21955764
       49.90855       48.37713775        1.09154370
       50.00825       50.36159706        1.13730957
       50.10794       51.46526094        1.17591519
       50.20763       50.39593035        1.21568305
       50.30733       51.78211583        1.29087094
       50.40702       50.86601837        1.19974074
       50.50671       52.45354479        1.22196507
       50.60641       54.80941675        1.25097835
       50.70610       55.18932643        1.29168126
       50.80579       56.75189982        1.29262551
       50.90549       54.94595901        1.14664572
       51.00518       54.14729033        1.14834121
       51.10487       56.06631042        1.20796398
       51.20457       58.46008381        1.31326277
       51.30426       55.49580602        1.27274552
       51.40395       55.85064470        1.22405503
       51.50365       59.05643157        1.27321449
       51.60334       59.91695931        1.30782422
       51.70303       57.29537883        1.35798738
       51.80273       61.71288067        1.29297097
       51.90242       63.79123984        1.22829900
       52.00211       59.49020041        1.19159689
       52.10181       64.86355065        1.28387207
       52.20150       62.69655038        1.38996852
       52.30119       60.49647104        1.31515088
       52.40089       63.24024455        1.32371679
       52.50058       62.52739517        1.34106734
       52.60027       60.17623385        1.33347104
       52.69997       60.18727077        1.46149933
       52.79966       57.83209685        1.20434749
       52.89935       58.66268262        1.17040058
       52.99905       63.40225454        1.23679378
       53.09874       73.22637255        1.37234734
       53.19844       84.10465127        1.68461511
       53.29813      106.43269913        1.68514588
       53.39782      121.51420396        1.86329278
       53.49752      145.11496974        2.04678015
       53.59721      163.28127746        2.17051352
       53.69690      170.82856969        2.43643359
       53.79660      176.37348463        2.07411087
       53.89629      174.60926159        2.04133054
       53.99598      155.09712266        1.96969678
       54.09568      133.44593437        1.90671618
       54.19537      119.91032725        1.97054274
       54.29506      104.61917429        1.69028159
       54.39476       95.62577131        1.62821198
       54.49445       88.96109286        1.57134257
       54.59414       86.27318905        1.57092908
       54.69384       81.99894444        1.63363153
       54.79353       77.85457098        1.36486390
       54.89322       78.17865922        1.36281967
       54.99292       72.95882585        1.35487214
       55.09261       72.01206457        1.39980984
       55.19230       68.27319577        1.46354485
       55.29200       66.69068091        1.34626871
       55.39169       61.47809629        1.33351210
       55.49138       57.34831876        1.28300348
       55.59108       55.94248041        1.30776803
       55.69077       54.72132208        1.32733963
       55.79046       56.36135037        1.17779754
       55.89016       54.16019744        1.15172161
       55.98985       54.45794345        1.16229824
       56.08954       56.84034811        1.22668017
       56.18924       60.37465761        1.36452590
       56.28893       66.69730004        1.31284294
       56.38862       74.44519649        1.43496326
       56.48832       86.64379977        1.57518950
       56.58801       97.23764799        1.71739393
       56.68770      109.22328078        1.87922042
       56.78740      109.53635689        1.61054907
       56.88709      114.94977384        1.66665579
       56.98679      108.50408664        1.62043144
       57.08648      102.77846926        1.67165814
       57.18617       94.53104415        1.65969785
       57.28587       82.76756635        1.45056365
       57.38556       71.45994584        1.43434672
       57.48525       65.29101056        1.39716054
       57.58495       57.35874210        1.33922881
       57.68464       58.20515148        1.36090613
       57.78433       55.47782289        1.16219121
       57.88403       53.34791529        1.15286342
       57.98372       52.41235979        1.16086777
       58.08341       51.62739490        1.24569841
       58.18311       52.21924029        1.28157771
       58.28280       52.05416361        1.20518741
       58.38249       52.99528397        1.27068255
       58.48219       51.65269822        1.28151146
       58.58188       50.22168142        1.27739003
       58.68157       52.70735346        1.28244859
       58.78127       52.08021104        1.11504285
       58.88096       51.08783216        1.08803547
       58.98065       53.73224580        1.15843528
       59.08035       57.92000783        1.28356378
       59.18004       58.41022820        1.30757223
       59.27973       62.25341313        1.27378026
       59.37943       64.71732622        1.34165610
       59.47912       67.02073673        1.42137712
       59.57881       69.04972985        1.51145383
       59.67851       77.67684809        1.49497712
       59.77820       84.57731300        1.43431361
       59.87789       89.81643375        1.47296936
       59.97759       94.45227413        1.58023497
       60.07728      101.13385821        1.77107066
       60.17697      102.82043807        1.70123377
       60.27667      106.11110006        1.68043956
       60.37636      106.08909784        1.71285711
       60.47605      103.66612578        1.76626626
       60.57575      102.06784175        1.92071518
       60.67544       91.89386344        1.56526601
       60.77514       84.84237415        1.42957890
       60.87483       78.99829774        1.35252114
       60.97452       70.55895357        1.34628309
       61.07422       69.21609507        1.49789391
       61.17391       68.00507406        1.28608021
       61.27360       64.27415756        1.29453241
       61.37330       64.40367807        1.34390089
       61.47299       66.81670789        1.42912520
       61.57268       68.84937095        1.64982226
       61.67238       67.43287688        1.33067114
       61.77207       70.02301894        1.32075149
       61.87176       69.57376249        1.30181914
       61.97146       71.17428919        1.36710151
       62.07115       69.60267532        1.53105972
       62.17084       64.28842965        1.28893135
       62.27054       63.44245672        1.33503855
       62.37023       61.57110493        1.36750568
       62.46992       59.93754399        1.39540631
       62.56962       58.17660529        1.54395970
       62.66931       57.00259080        1.23113588
       62.76900       58.60537031        1.21676757
       62.86870       64.98202011        1.25353026
       62.96839       67.51787665        1.31856230
       63.06808       75.57639277        1.55281758
       63.16778       82.68779588        1.44206948
       63.26747       99.22326502        1.63555335
       63.36716      121.57924028        1.88020541
       63.46686      136.80711544        2.05528434
       63.56655      156.69198532        2.33828430
       63.66624      178.86513115        2.12488365
       63.76594      197.43459509        2.16971055
       63.86563      204.64669639        2.20244877
       63.96532      203.06231824        2.29538255
       64.06502      196.19293897        2.41644239
       64.16471      176.35698841        2.11772667
       64.26440      149.91477207        2.03093604
       64.36410      129.01570547        1.92101714
       64.46379      108.65173281        1.86337652
       64.56349       94.47356725        1.76786584
       64.66318       78.19315563        1.40715345
       64.76287       68.50364368        1.30060800
       64.86257       64.19867305        1.25711381
       64.96226       59.38140261        1.26628340
       65.06195       59.61939094        1.37204544
       65.16165       52.51012438        1.16128574
       65.26134       54.17077877        1.20719502
       65.36103       53.80841115        1.25544691
       65.46073       52.24501226        1.27764853
       65.56042       55.32006836        1.37328419
       65.66011       55.92667687        1.20401897
       65.75981       59.16699851        1.22615792
       65.85950       59.47377324        1.22149504
       65.95919       59.88349143        1.28305270
       66.05889       63.02354638        1.36160544
       66.15858       68.71146027        1.35217037
       66.25827       81.84512458        1.52679847
       66.35797       93.06085297        1.69647934
       66.45766      110.86619547        1.96840681
       66.55735      122.40166499        2.06821337
       66.65705      140.76080060        1.96824267
       66.75674      150.12453363        1.98097782
       66.85643      165.24982102        2.05544375
       66.95613      171.86277843        2.17970148
       67.05582      171.26697794        2.19205882
       67.15551      167.66689457        2.06369466
       67.25521      155.28134650        2.08383331
       67.35490      138.49243433        2.07088142
       67.45459      124.10155067        2.06685938
       67.55429      104.74775779        1.81853625
       67.65398       91.74941107        1.52527630
       67.75367       82.28487229        1.43245789
       67.85337       75.47313973        1.38859348
       67.95306       76.55111152        1.49552238
       68.05275       78.46691233        1.43380409
       68.15245       86.30434442        1.49110268
       68.25214       99.40235495        1.69913115
       68.35184      107.42229537        1.84118787
       68.45153      115.27859164        2.10008417
       68.55122      117.88017912        1.82944147
       68.65092      127.05533261        1.77067856
       68.75061      132.48669674        1.82697746
       68.85030      127.18984805        1.82414341
       68.95000      127.90451773        2.07401300
       69.04969      119.16539647        1.69020838
       69.14938      103.73217800        1.62087561
       69.24908       88.12752141        1.59483792
       69.34877       80.18413916        1.57317215
       69.44846       69.28866874        1.69579556
       69.54816       64.22664276        1.27286429
       69.64785       58.07692962        1.19320637
       69.74754       54.67976405        1.16935504
       69.84724       51.33650690        1.16248835
       69.94693       50.31510639        1.29879464
       70.04662       47.52014326        1.03787077
       70.14632       49.15677501        1.09773653
       70.24601       45.73482382        1.13359670
       70.34570       47.16366858        1.21821867
       70.44540       48.17359606        1.45068756
       70.54509       50.90021724        1.16730716
       70.64478       50.17334745        1.15726453
       70.74448       49.82962145        1.17155934
       70.84417       51.42576167        1.23509477
       70.94386       49.62544989        1.33176004
       71.04356       51.64837854        1.12434522
       71.14325       51.77517708        1.16983219
       71.24294       55.38550244        1.27320523
       71.34264       55.90659122        1.35639620
       71.44233       56.10900624        1.51634016
       71.54202       55.85659105        1.23169969
       71.64172       54.77836116        1.18646656
       71.74141       56.46304601        1.18278464
       71.84110       51.67810608        1.17114293
       71.94080       52.54909985        1.28692945
       72.04049       52.55567935        1.08932710
       72.14019       53.61419411        1.14639020
       72.23988       50.86860684        1.16825133
       72.33957       54.97272637        1.35676145
       72.43927       52.41765690        1.45826968
       72.53896       52.56936840        1.17091433
       72.63865       52.95609512        1.14873339
       72.73835       56.27302619        1.15825470
       72.83804       58.43452145        1.24643766
       72.93773       60.31675561        1.34523428
       73.03743       65.19256096        1.21416402
       73.13712       69.37746319        1.32108022
       73.23681       69.70462721        1.39119868
       73.33651       71.76063888        1.55333373
       73.43620       67.85342185        1.63581078
       73.53589       69.04653892        1.33119827
       73.63559       69.40643428        1.31372152
       73.73528       68.92744248        1.30321014
       73.83497       66.27797605        1.35467704
       73.93467       63.92462576        1.40080854
       74.03436       63.17025756        1.23234196
       74.13405       59.65732947        1.24834768
       74.23375       56.39501022        1.26413419
       74.33344       57.13313107        1.40075224
       74.43313       56.85555853        1.44995724
       74.53283       56.33743617        1.22629165
       74.63252       57.73883183        1.23251231
       74.73221       54.69947069        1.19363427
       74.83191       58.24121710        1.30670110
       74.93160       62.84382442        1.37284672
       75.03129       65.04628718        1.24176674
       75.13099       75.15089752        1.38295912
       75.23068       85.86932997        1.54247058
       75.33037       99.28966991        1.82393323
       75.43007      108.14464428        1.93147314
       75.52976      124.84611322        1.80345020
       75.62945      138.75636140        1.90034742
       75.72915      155.78820314        2.00664157
       75.82884      163.54940867        2.21409185
       75.92854      168.36362721        2.10908745
       76.02823      174.62289074        2.01480692
       76.12792      172.71064780        2.09410673
       76.22762      169.40204982        2.18784765
       76.32731      153.92731567        2.35407776
       76.42700      146.39271563        2.16619740
       76.52670      137.60203417        1.93691916
       76.62639      118.95586034        1.77704853
       76.72608      104.92027556        1.64050852
       76.82578       97.71682553        1.82387367
       76.92547       94.34996610        1.43535393
       77.02516       95.56426521        1.49729307
       77.12486      104.43518408        1.64476295
       77.22455      119.56973708        1.87486653
       77.32424      130.48346833        2.40700941
       77.42394      139.48176830        1.98767528
       77.52363      150.06023221        1.99295217
       77.62332      157.42502830        2.03239760
       77.72302      171.16049329        2.12495277
       77.82271      171.85774473        2.49711592
       77.92240      176.43011015        1.93770272
       78.02210      171.83165321        2.06309702
       78.12179      165.92021099        2.16484042
       78.22148      153.32274788        2.19970981
       78.32118      145.96483799        2.48987983
       78.42087      125.99466189        1.81940404
       78.52056      109.39140751        1.74975465
       78.62026       90.96014611        1.58209445
       78.71995       79.80855125        1.48641418
       78.81964       73.81514826        1.59648936
       78.91934       65.44155836        1.16450002
       79.01903       65.08902221        1.27330869
       79.11872       60.43939548        1.27677925
       79.21842       58.75409924        1.34285938
       79.31811       54.49683642        1.45658803
       79.41780       55.61387423        1.19369077
       79.51750       58.33337398        1.24234156
       79.61719       55.29316240        1.21296358
       79.71689       60.99731690        1.32297337
       79.81658       61.19884449        1.40473691
       79.91627       62.25606446        1.20101238
       80.01597       60.14928129        1.21330845
       80.11566       62.81556427        1.29627632
       80.21535       63.17171202        1.38959795
       80.31505       68.65765344        1.72246466
       80.41474       66.02685012        1.29784247
       80.51443       66.36649843        1.29549144
       80.61413       70.70865739        1.38174934
       80.71382       71.47324161        1.43709599
       80.81351       71.60623813        1.61630645
       80.91321       74.71518891        1.21756930
       81.01290       82.57511002        1.38200868
       81.11259       96.99756764        1.61719570
       81.21229      110.61528241        1.86844642
       81.31198      121.35209331        2.18340223
       81.41167      140.36857108        1.83928685
       81.51137      166.35952279        2.06105996
       81.61106      191.78120992        2.31207768
       81.71075      213.09552032        2.52367648
       81.81045      226.66298432        2.75818559
       81.91014      263.00830702        2.28679734
       82.00983      293.44919298        2.58388400
       82.10953      324.18884121        3.04087297
       82.20922      346.69088235        3.49958133
       82.30891      357.78906655        3.72897947
       82.40861      366.61874451        3.07043938
       82.50830      359.68553733        3.03267982
       82.60799      363.54655750        3.28476950
       82.70769      354.10225877        3.52683491
       82.80738      347.84510738        3.33915818
       82.90707      323.64138348        2.61343308
       83.00677      298.69633535        2.67322634
       83.10646      276.11178145        3.02234848
       83.20615      256.41034851        3.24029070
       83.30585      228.59150426        2.89616926
       83.40554      198.28366515        2.24084412
       83.50524      166.90736456        2.00454998
       83.60493      135.66726714        1.98941787
       83.70462      118.64822197        2.09717874
       83.80432      103.84045086        1.71410921
       83.90401       86.85009316        1.31462458
       84.00370       75.00193397        1.27401891
       84.10340       66.37019127        1.43197156
       84.20309       66.82196079        1.74457351
       84.30278       64.67218420        1.39581051
       84.40248       61.23095547        1.19859722
       84.50217       62.22222021        1.18542754
       84.60186       63.07257766        1.34960338
       84.70156       59.98741833        1.72215442
       84.80125       62.17366137        1.22074189
       84.90094       64.09606251        1.11351442
       85.00064       63.21875875        1.13933853
       85.10033       62.06081300        1.33591854
       85.20002       62.51280759        2.29960048
       85.29972       64.42395089        1.23153971
       85.39941       62.84707558        1.24008103
       85.49910       65.05817307        1.22707269
       85.59880       67.00157146        1.40035195
       85.69849       70.29196889        2.57540905
       85.79818       63.60580090        1.15475087
       85.89788       64.68675334        1.13674103
       85.99757       64.35740559        1.16501352
       86.09726       67.00503430        1.36497190
       86.19696       68.64759354        2.65372826
       86.29665       66.00095913        1.23125774
       86.39634       67.45196441        1.26638535
       86.49604       64.76395336        1.22201355
       86.59573       64.27645097        1.29710690
       86.69542       57.89605213        2.57328889
       86.79512       60.44695979        1.09157279
       86.89481       58.67020642        1.06018974
       86.99451       57.04762659        1.08356774
       87.09420       56.25290153        1.19999186
       87.19389       53.05134814        2.76013098
       87.29359       53.25727880        1.12078393
       87.39328       51.21748916        1.11388051
       87.49297       50.03138641        1.06868521
       87.59267       49.77957035        1.08694463
       87.69236       51.15232752        3.29715776
       87.79205       51.57361836        1.03134114
       87.89175       51.22497691        1.01956165
       87.99144       50.85231106        1.05851191
       88.09113       49.85306647        1.11392314
       88.19083       61.10188129        6.52839817
       88.29052       50.04119008        1.12306288
       88.39021       52.81374767        1.16155945
       88.48991       50.87224055        1.09401145
       88.58960       51.33948854        1.06432734
       88.68929       48.10557715        7.98017705
       88.78899       50.53775020        1.01924368
       88.88868       48.83046806        0.97993910
       88.98837       49.57433232        1.02698818
       89.08807       47.53756883        1.03000785
       89.18776       62.64875673        9.62610127
       89.28745       48.88196329        1.06124395
       89.38715       49.95302884        1.08386777
       89.48684       54.06848876        1.10366451
       89.58653       56.49937230        1.10537433
       89.68623       62.24970755        9.40792270
       89.78592       58.53606622        1.09333233
       89.88561       63.97538279        1.12077519
       89.98531       64.92312386        1.15774970
       90.08500       75.81966722        1.29809187
       90.18469       75.95089659       10.83563252
       90.28439       83.85320063        1.39458695
       90.38408       86.32765667        1.43885951
       90.48377       95.67035338        1.48672858
       90.58347      101.94131093        1.51085206
       90.68316       98.72405998       11.58024489
       90.78286      101.99826077        1.44662468
       90.88255      100.96593482        1.40041649
       90.98224      106.30986225        1.48703849
       91.08194      105.31632096        1.52857804
       91.18163      110.58794407       12.50146390
       91.28132      103.53872001        1.56038311
       91.38102      102.27686196        1.59193225
       91.48071       93.48240229        1.48414763
       91.58040       84.86051970        1.36715398
       91.68010       74.13904248        9.66389557
       91.77979       77.57501895        1.25449953
       91.87948       72.23890551        1.19167030
       91.97918       64.84744049        1.17212101
       92.07887       61.47029421        1.18862091
       92.17856       81.48587730       10.41275190
       92.27826       62.51137481        1.23800204
       92.37795       62.05311807        1.26269618
       92.47764       62.42400135        1.20227067
       92.57734       68.63319885        1.22322507
       92.67703       77.79807203        8.45653812
       92.77672       77.22603894        1.25094463
       92.87642       85.26072846        1.28967348
       92.97611       95.43982689        1.42530808
       93.07580       98.35429522        1.65154869
       93.17550      106.72918111        3.23603424
       93.27519      102.62882274        1.55523029
       93.37488      104.06366324        1.52240188
       93.47458      107.43892822        1.56408713
       93.57427      111.26279698        1.84042475
       93.67396      111.76392986        2.49281610
       93.77366      111.51541314        1.54252423
       93.87335      110.04056410        1.46356073
       93.97304      103.40885609        1.47820104
       94.07274       97.08243230        1.85909985
       94.17243       95.15993637        2.10001954
       94.27212       93.27113725        1.54842473
       94.37182       85.71838897        1.44631847
       94.47151       78.64788655        1.32642139
       94.57121       73.43754971        1.69127351
       94.67090       69.51260241        1.66428341
       94.77059       69.03738119        1.28931577
       94.87029       64.92763838        1.13682959
       94.96998       62.81911200        1.13230450
       95.06967       61.89952730        1.29567657
       95.16937       57.80758902        1.71378347
       95.26906       60.02363012        1.34918653
       95.36875       61.61154410        1.24040830
       95.46845       59.75403370        1.17390406
       95.56814       60.28975697        1.35687193
       95.66783       58.25088153        1.49827902
       95.76753       57.26498768        1.22756069
       95.86722       56.01765681        1.03270547
       95.96691       55.36312822        1.06487526
       96.06661       52.72200436        1.33106758
       96.16630       54.47268177        1.44291148
       96.26599       51.46632916        1.25942891
       96.36569       53.64817280        1.15385335
       96.46538       49.33436281        1.06769918
       96.56507       49.59670062        1.32133093
       96.66477       48.08346761        1.26768070
       96.76446       47.90141181        1.13066893
       96.86415       50.28885326        1.00357313
       96.96385       49.89286583        1.03243074
       97.06354       51.31844834        1.41593323
       97.16323       50.31328039        1.34048414
       97.26293       49.10572858        1.24412659
       97.36262       49.94669374        1.16195864
       97.46231       50.19309013        1.07162432
       97.56201       53.72710791        1.41072202
       97.66170       51.21850860        1.23704794
       97.76139       53.09170485        1.14428537
       97.86109       54.55085975        1.04889547
       97.96078       55.46957036        1.08083048
       98.06047       58.22958365        1.53829864
       98.16017       54.90964856        1.32777944
       98.25986       54.14291941        1.25934561
       98.35956       57.46361891        1.22499625
       98.45925       56.87008268        1.13746256
       98.55894       58.87791743        1.50984283
       98.65864       60.82677417        1.31681958
       98.75833       58.88669024        1.21052626
       98.85802       64.13226742        1.17977460
       98.95772       68.09281444        1.20771181
       99.05741       69.85046141        1.69820550
       99.15710       72.21757000        1.48511514
       99.25680       73.53197307        1.45189361
       99.35649       79.58217314        1.43888735
       99.45618       85.21640337        1.38784191
       99.55588       83.65954219        1.83729241
       99.65557       84.11763058        1.51991247
       99.75526       90.03647740        1.47413842
       99.85496       88.44800526        1.39054227
       99.95465       89.86803165        1.37422819
      100.05434       87.20096533        1.92824721
      100.15404       91.98912199        1.66842575
      100.25373       92.16818120        1.65005867
      100.35342       89.45786288        1.61910862
      100.45312       87.57993999        1.46175263
      100.55281       85.90138235        1.90127974
      100.65250       83.05138712        1.52283390
      100.75220       78.22793127        1.36876774
      100.85189       76.40347395        1.29243671
      100.95158       73.64259594        1.23484870
      101.05128       69.46847263        1.70965110
      101.15097       73.86337219        1.45722509
      101.25066       73.67976216        1.43795537
      101.35036       70.03542211        1.41391419
      101.45005       73.52426254        1.36247580
      101.54974       72.91797833        1.68996209
      101.64944       77.24343566        1.41932045
      101.74913       78.33313119        1.34675796
      101.84882       85.64648623        1.37114591
      101.94852       85.18405320        1.44039059
      102.04821       85.89949253        1.74222001
      102.14791       87.59619399        1.58566575
      102.24760       89.36997067        1.58821317
      102.34729       89.87556597        1.58622766
      102.44699       89.98015135        1.61475092
      102.54668       92.59141419        1.71895853
      102.64637       96.10117407        1.56426044
      102.74607       95.27271497        1.48327315
      102.84576       92.89684818        1.43672983
      102.94545       97.00487100        1.67239501
      103.04515       95.83603935        1.75967010
      103.14484       93.00220273        1.61941824
      103.24453       90.27091839        1.57069595
      103.34423       89.11790902        1.54793675
      103.44392       88.75506082        1.67333190
      103.54361       89.28835223        1.63046056
      103.64331       85.10491606        1.44875423
      103.74300       85.29310637        1.38345279
      103.84269       81.60770643        1.32963644
      103.94239       81.32189542        1.59503374
      104.04208       81.60544997        1.54579827
      104.14177       79.31990567        1.48259439
      104.24147       78.52046162        1.47431238
      104.34116       81.60586809        1.51249487
      104.44085       78.64293925        1.68617751
      104.54055       80.77406689        1.54731229
      104.64024       81.66135691        1.46247739
      104.73993       74.45174648        1.33222174
      104.83963       74.06221072        1.28013132
      104.93932       71.89358115        1.52889058
      105.03901       71.54020321        1.43703106
      105.13871       71.77521910        1.38596896
      105.23840       67.19612569        1.34004327
      105.33809       64.39059870        1.31938381
      105.43779       60.04759511        1.48225447
      105.53748       61.31295251        1.34326398
      105.63717       59.38261645        1.21163951
      105.73687       57.00852196        1.12971831
      105.83656       53.17074321        1.06298030
      105.93626       53.62809915        1.35286378
      106.03595       52.47289443        1.21280962
      106.13564       49.98408906        1.14396368
      106.23534       50.39218951        1.16278530
      106.33503       49.83042727        1.16794396
      106.43472       49.09537936        1.37051922
      106.53442       50.03089644        1.20342792
      106.63411       49.03814519        1.08225702
      106.73380       47.35016307        1.01352418
      106.83350       47.98432657        1.00507863
      106.93319       51.44447206        1.34922434
      107.03288       49.80906419        1.17656924
      107.13258       50.80060099        1.15337490
      107.23227       50.60540540        1.16785572
      107.33196       54.19758265        1.20543018
      107.43166       55.15365963        1.46114491
      107.53135       54.36965131        1.25164711
      107.63104       55.85714664        1.15524764
      107.73074       60.11211197        1.14996997
      107.83043       60.33710915        1.13756566
      107.93012       65.58087436        1.56916828
      108.02982       65.13105200        1.36868910
      108.12951       65.91754161        1.30943848
      108.22920       68.30091370        1.31163859
      108.32890       68.00483489        1.29630109
      108.42859       72.27658840        1.69634796
      108.52828       71.06648751        1.42676697
      108.62798       71.28806920        1.29575503
      108.72767       74.99850256        1.27583256
      108.82736       73.48299643        1.29063348
      108.92706       69.84623240        1.59341188
      109.02675       73.41625075        1.42932872
      109.12644       72.62318350        1.38745029
      109.22614       73.12140368        1.39332136
      109.32583       70.84933344        1.49439271
      109.42552       70.73344640        1.57500853
      109.52522       72.36868039        1.43738131
      109.62491       69.12931698        1.33609029
      109.72461       66.70914907        1.25471207
      109.82430       64.73703777        1.15453136
      109.92399       62.34720429        1.47301341
      110.02369       62.81374708        1.29476743
      110.12338       59.58259882        1.25266697
      110.22307       56.91111929        1.21498557
      110.32277       55.47644151        1.22489722
      110.42246       56.26277321        1.49989464
      110.52215       52.29897055        1.22461939
      110.62185       55.94863363        1.19389768
      110.72154       54.01920466        1.09440042
      110.82123       50.91379837        1.09716687
      110.92093       58.59546032        1.37317116
      111.02062       55.37108843        1.23307145
      111.12031       53.93171566        1.22596325
      111.22001       53.06882133        1.19329797
      111.31970       55.91727373        1.32949327
      111.41939       54.68193091        1.36037677
      111.51909       56.14052668        1.25079491
      111.61878       60.11904432        1.21947738
      111.71847       58.79122253        1.12193209
      111.81817       63.93498193        1.27007195
      111.91786       66.29854046        1.36118806
      112.01755       70.32738506        1.36910556
      112.11725       69.78080775        1.37407756
      112.21694       72.28477344        1.39235572
      112.31663       76.16445703        1.57515879
      112.41633       75.88972972        1.54461006
      112.51602       80.74785017        1.46746722
      112.61571       81.94907513        1.41028438
      112.71541       85.14881039        1.35488545
      112.81510       88.80135256        1.55163660
      112.91479       87.51835671        1.56904804
      113.01449       88.22974473        1.54276284
      113.11418       88.07181457        1.53622114
      113.21387       90.85219348        1.55333563
      113.31357       90.67388491        1.72339473
      113.41326       92.05614645        1.65034024
      113.51296       93.21031301        1.56215794
      113.61265       92.89726518        1.50477590
      113.71234       95.03765933        1.45389406
      113.81204       90.40876699        1.62430100
      113.91173       90.40803467        1.57397214
      114.01142       88.21201788        1.53895973
      114.11112       87.32912534        1.53037927
      114.21081       87.31594967        1.54133159
      114.31050       84.92061134        1.72364352
      114.41020       84.07091395        1.58470624
      114.50989       79.65954478        1.44387366
      114.60958       77.52126303        1.37827449
      114.70928       76.61336849        1.32146697
      114.80897       72.95233206        1.46234983
      114.90866       71.09108471        1.36149367
      115.00836       70.73477052        1.35171268
      115.10805       69.87787770        1.35077726
      115.20774       70.75561077        1.37984642
      115.30744       68.71024766        1.56113639
      115.40713       69.21376098        1.41921057
      115.50682       68.43116284        1.33221126
      115.60652       68.98737073        1.28918015
      115.70621       70.13724384        1.24932857
      115.80590       72.79380735        1.48492709
      115.90560       75.34030430        1.36934989
      116.00529       76.78891870        1.39794809
      116.10498       79.69534417        1.43918602
      116.20468       82.51606532        1.49820498
      116.30437       87.83122180        1.84291918
      116.40406       89.84635316        1.62352885
      116.50376       96.01426892        1.58635829
      116.60345      102.40557601        1.57300310
      116.70314      113.46106514        1.60613068
      116.80284      121.41939761        1.97473874
      116.90253      129.44811347        1.83468444
      117.00222      136.96183704        1.87274658
      117.10192      143.50997093        1.96880514
      117.20161      149.02900289        2.03112246
      117.30131      149.35813389        2.43319501
      117.40100      158.15291601        2.10560310
      117.50069      166.76940561        2.05419201
      117.60039      171.46997106        1.99370958
      117.70008      177.83643057        1.96742813
      117.79977      180.79140657        2.43107647
      117.89947      189.22488475        2.16277521
      117.99916      189.02625396        2.18740211
      118.09885      191.14731697        2.24104833
      118.19855      186.17158190        2.31609162
      118.29824      202.14757078        2.64722137
      118.39793      200.47499288        2.39336783
      118.49763      203.28364409        2.27445075
      118.59732      196.03086187        2.15585999
      118.69701      192.83199979        2.22720045
      118.79671      190.51317687        2.39016381
      118.89640      186.52391403        2.20471718
      118.99609      182.99488889        2.18115539
      119.09579      180.04021595        2.18846617
      119.19548      173.08644866        2.34404871
      119.29517      167.63226496        2.39615530
      119.39487      163.17379506        2.17287335
      119.49456      157.05393825        2.00844621
      119.59425      144.52324743        1.87026828
      119.69395      144.67488086        1.97419929
      119.79364      137.88282585        1.94731384
      119.89333      134.81564153        1.86336783
      119.99303      128.39386986        1.77505166
      120.09272      126.96087611        1.80525628
      120.19241      126.04242725        2.02172553
      120.29211      122.18626685        1.96999584
      120.39180      121.50217128        1.87414778
      120.49149      121.79005802        1.74513304
      120.59119      119.54118236        1.67799916
      120.69088      117.22842496        1.78867021
      120.79057      115.42194305        1.73662372
      120.89027      117.55717969        1.72078680
      120.98996      115.97935887        1.69597018
      121.08966      116.29895413        1.71103808
      121.18935      114.76119613        1.94817796
      121.28904      115.64834161        1.90617574
      121.38874      116.24261741        1.80722620
      121.48843      113.36605940        1.68551786
      121.58812      120.30449605        1.65642653
      121.68782      118.53627194        1.82139090
      121.78751      124.84706883        1.78160686
      121.88720      121.62815096        1.73581016
      121.98690      121.88877835        1.75070467
      122.08659      119.82185742        1.77043000
      122.18628      116.96350993        2.02895517
      122.28598      117.95505287        1.91614523
      122.38567      117.46742648        1.83132937
      122.48536      114.72526818        1.71181167
      122.58506      115.17507884        1.62446689
      122.68475      113.39120761        1.82638847
      122.78444      111.30495274        1.70372714
      122.88414      106.05525937        1.64864250
      122.98383      102.67518330        1.65519908
      123.08352      101.93848117        1.63510542
      123.18322       96.90923975        1.85908357
      123.28291       98.32603365        1.70201422
      123.38260       93.95388869        1.60587253
      123.48230       96.66933069        1.57011741
      123.58199       96.01834122        1.46256340
      123.68168       89.84355547        1.61403087
      123.78138       90.34516459        1.46027204
      123.88107       88.79517599        1.41414213
      123.98076       88.26893780        1.43600087
      124.08046       85.58747947        1.39899064
      124.18015       86.52184088        1.59213592
      124.27984       85.90511117        1.42132587
      124.37954       82.29488730        1.31255656
      124.47923       78.71794175        1.25307250
      124.57893       72.89978792        1.28447377
