        5.04651       57.89523873        2.59575908
        5.14621       58.21043190        2.50849670
        5.24590       57.07255935        2.44814088
        5.34559       59.24815889        2.28791942
        5.44529       58.50050688        2.47322885
        5.54498       59.75693714        2.10274068
        5.64467       50.94865656        1.92402494
        5.74437       56.76235493        1.83358438
        5.84406       51.16644590        1.76139663
        5.94375       54.22951679        1.81111792
        6.04345       53.37197203        1.74581794
        6.14314       55.11126871        1.62442892
        6.24283       50.57112121        1.60718965
        6.34253       53.49862428        1.57683556
        6.44222       53.61352622        1.66213973
        6.54191       51.45811579        1.54252816
        6.64161       50.49236511        1.44746949
        6.74130       54.80642954        1.51435931
        6.84099       54.42167561        1.49808844
        6.94069       54.45289408        1.52108437
        7.04038       52.77259395        1.38215593
        7.14007       54.94968744        1.40756141
        7.23977       52.02943524        1.34556416
        7.33946       51.12149602        1.35414521
        7.43915       51.17502614        1.33717734
        7.53885       52.94931191        1.33514807
        7.63854       52.98817055        1.27657441
        7.73823       52.04533769        1.31365370
        7.83793       54.18743255        1.29723297
        7.93762       52.24513718        1.32863656
        8.03732       52.01318245        1.18889843
        8.13701       52.68340970        1.19116081
        8.23670       53.86521128        1.22149307
        8.33640       51.97214591        1.20008626
        8.43609       52.65691001        1.26290919
        8.53578       51.74144047        1.16601822
        8.63548       54.19590724        1.17973993
        8.73517       55.04259140        1.16629417
        8.83486       51.80507469        1.13410081
        8.93456       53.87263225        1.15065442
        9.03425       52.03563399        1.09768017
        9.13394       54.35661836        1.12409746
        9.23364       53.09644163        1.12716246
        9.33333       54.63828371        1.16675422
        9.43302       54.13670109        1.16179806
        9.53272       52.60691763        1.10651247
        9.63241       53.56864203        1.14818025
        9.73210       52.54627418        1.13485061
        9.83180       53.32880184        1.19131155
        9.93149       53.25406752        1.18195194
       10.03118       53.71281094        1.14216988
       10.13088       55.22850532        1.13048105
       10.23057       52.83912024        1.15785472
       10.33026       52.80314666        1.19642963
       10.42996       54.86789630        1.20297440
       10.52965       53.84106992        1.15402954
       10.62934       54.70322579        1.16606269
       10.72904       56.32868941        1.20082853
       10.82873       57.42394335        1.20638354
       10.92842       59.20281303        1.24553664
       11.02812       56.22707338        1.15630863
       11.12781       57.81205193        1.21461792
       11.22750       56.83174721        1.21623190
       11.32720       58.59295150        1.26822881
       11.42689       58.81025694        1.22650532
       11.52658       58.01595153        1.20364260
       11.62628       58.19647119        1.21860178
       11.72597       59.74557468        1.26100769
       11.82567       58.13124071        1.27837122
       11.92536       59.14811035        1.20678547
       12.02505       60.63097419        1.22757180
       12.12475       61.79962776        1.23826943
       12.22444       65.86934330        1.35575282
       12.32413       69.06160502        1.40947081
       12.42383       77.54675207        1.41792347
       12.52352       82.98117288        1.45775957
       12.62321       95.25877779        1.60652968
       12.72291      105.35727999        1.64411502
       12.82260      119.76077387        1.90565562
       12.92229      129.93301404        1.80263542
       13.02199      152.01870690        1.93482577
       13.12168      179.78800401        2.14139528
       13.22137      214.27694348        2.41478083
       13.32107      246.34409538        2.67360729
       13.42076      286.95956476        2.77965066
       13.52045      320.46433338        2.97460450
       13.62015      338.97100837        2.96633212
       13.71984      331.70106195        3.05835483
       13.81953      319.98668144        3.05571565
       13.91923      288.43574938        2.72499184
       14.01892      228.80173681        2.36157659
       14.11861      182.13595091        2.19778793
       14.21831      142.28303332        1.94362748
       14.31800      113.45314522        1.82655718
       14.41769       91.57770021        1.57998168
       14.51739       74.04909580        1.38567164
       14.61708       63.42075513        1.28535024
       14.71677       58.17783603        1.25104919
       14.81647       56.88178241        1.29588155
       14.91616       54.76901273        1.16930635
       15.01585       51.45708494        1.15370591
       15.11555       53.36270198        1.18857257
       15.21524       50.82195024        1.19538096
       15.31493       51.29419451        1.22990255
       15.41463       51.62439755        1.19466555
       15.51432       49.95702791        1.13873394
       15.61402       50.39276993        1.17266817
       15.71371       52.45988923        1.18834597
       15.81340       50.13600755        1.20843745
       15.91310       48.93808636        1.16002459
       16.01279       48.38022026        1.10434151
       16.11248       48.07767469        1.13043398
       16.21218       48.08554541        1.16185621
       16.31187       49.21957226        1.17839798
       16.41156       49.10953611        1.15515764
       16.51126       49.69459109        1.18169034
       16.61095       50.74999288        1.15149809
       16.71064       51.68207978        1.19880224
       16.81034       53.61450976        1.22478697
       16.91003       57.23285767        1.22910350
       17.00972       55.50450030        1.16190891
       17.10942       60.19381328        1.27909828
       17.20911       61.74598481        1.30698079
       17.30880       68.34942485        1.38732985
       17.40850       70.03296417        1.40403352
       17.50819       72.92228965        1.39127751
       17.60788       74.79382528        1.45284882
       17.70758       77.50715900        1.48520104
       17.80727       74.66883581        1.47560417
       17.90696       75.39726771        1.38641191
       18.00666       67.75880632        1.33703664
       18.10635       64.44814789        1.26820235
       18.20604       59.78230242        1.33973762
       18.30574       58.96786709        1.26810487
       18.40543       58.53673868        1.23218630
       18.50512       54.39990230        1.22516136
       18.60482       54.95923142        1.21215434
       18.70451       53.58266942        1.26475171
       18.80420       52.51322914        1.17618408
       18.90390       52.28351270        1.16107089
       19.00359       50.44943209        1.11063920
       19.10328       49.31785285        1.16174431
       19.20298       49.37788673        1.19862502
       19.30267       49.94794015        1.15771238
       19.40237       48.94853530        1.13306074
       19.50206       48.85447732        1.16042766
       19.60175       47.87430299        1.13580775
       19.70145       47.64336598        1.18811418
       19.80114       47.43704784        1.12440428
       19.90083       46.84973982        1.07963725
       20.00053       48.03751645        1.11268209
       20.10022       48.47269677        1.12602933
       20.19991       47.85857989        1.19617449
       20.29961       50.45211887        1.16379275
       20.39930       50.49470426        1.19945746
       20.49899       48.38694831        1.15367251
       20.59869       54.88148558        1.25140948
       20.69838       52.84504433        1.27316401
       20.79807       54.22704854        1.23017974
       20.89777       56.30866157        1.22529891
       20.99746       56.42471132        1.23876157
       21.09715       57.84407936        1.32118630
       21.19685       55.78544106        1.29060712
       21.29654       63.12247906        1.33956102
       21.39623       59.48367476        1.30027898
       21.49593       56.51057027        1.24912231
       21.59562       54.82275331        1.25987874
       21.69531       54.47182516        1.30622349
       21.79501       51.03874442        1.15652641
       21.89470       49.45644678        1.11277889
       21.99439       48.36773492        1.14707578
       22.09409       46.20503808        1.12383008
       22.19378       45.44227061        1.18357307
       22.29347       46.52443421        1.11540466
       22.39317       46.28179301        1.14130241
       22.49286       45.57643205        1.13163860
       22.59255       46.09092715        1.15140977
       22.69225       47.78562593        1.23553619
       22.79194       46.64889954        1.09630531
       22.89163       47.72217470        1.08720612
       22.99133       48.53483124        1.12686119
       23.09102       48.14174620        1.16552846
       23.19072       49.18458512        1.18090671
       23.29041       49.20544412        1.16645148
       23.39010       49.86193069        1.18653553
       23.48980       49.77108257        1.18975419
       23.58949       47.62985752        1.17939914
       23.68918       48.60148164        1.25284245
       23.78888       48.52746829        1.11567921
       23.88857       45.30214444        1.09194766
       23.98826       47.64953706        1.14499050
       24.08796       46.65484430        1.11086281
       24.18765       45.46763466        1.17500634
       24.28734       46.70797236        1.13392712
       24.38704       46.91132732        1.15539420
       24.48673       45.83145637        1.13789121
       24.58642       46.75332561        1.18734420
       24.68612       46.62434780        1.18413330
       24.78581       46.35038778        1.08834787
       24.88550       47.34348026        1.09953544
       24.98520       48.35555569        1.15237130
       25.08489       47.96736097        1.17063739
       25.18458       45.07896055        1.15856563
       25.28428       49.31272973        1.16808456
       25.38397       50.15705176        1.17235438
       25.48366       50.14704388        1.17924964
       25.58336       52.11963556        1.25315599
       25.68305       57.68907593        1.29329598
       25.78274       69.00922444        1.33547174
       25.88244       79.84806692        1.47313455
       25.98213      104.36815095        1.69897250
       26.08182      133.88212645        1.97606725
       26.18152      160.71662096        2.21857899
       26.28121      189.28844371        2.27876573
       26.38090      201.60925427        2.37193274
       26.48060      197.97016820        2.41486904
       26.58029      185.66652672        2.43911881
       26.67998      160.58433481        2.14137566
       26.77968      134.05005993        1.93241412
       26.87937      100.35620713        1.64695746
       26.97907       81.63491899        1.47260651
       27.07876       73.06521254        1.49993768
       27.17845       70.83140676        1.41129287
       27.27815       75.76648830        1.42566504
       27.37784       83.00372157        1.55069847
       27.47753       84.85790801        1.54484333
       27.57723       85.41057648        1.62359539
       27.67692       85.37089469        1.58441262
       27.77661       80.38302444        1.46723151
       27.87631       72.79303594        1.37279004
       27.97600       65.23604843        1.32862755
       28.07569       58.02716582        1.32595926
       28.17539       55.49951736        1.24135149
       28.27508       52.32887646        1.20578482
       28.37477       51.13753585        1.22030188
       28.47447       51.53966020        1.21553965
       28.57416       52.34898117        1.32446030
       28.67385       54.48592397        1.20224573
       28.77355       55.32019380        1.18958295
       28.87324       59.31988404        1.26481542
       28.97293       58.82716060        1.26246503
       29.07263       59.57597133        1.38491662
       29.17232       57.97616672        1.24670283
       29.27201       57.09327143        1.25999713
       29.37171       55.42501697        1.27702661
       29.47140       52.44171927        1.22772585
       29.57109       51.89498624        1.29505908
       29.67079       49.35383552        1.14968061
       29.77048       48.61397398        1.14364858
       29.87017       47.95855207        1.11359218
       29.96987       50.31988068        1.19613219
       30.06956       50.86091946        1.24066870
       30.16925       48.48384384        1.14044555
       30.26895       49.60917629        1.15805751
       30.36864       51.18956480        1.19564898
       30.46833       50.00404177        1.19364531
       30.56803       52.80526096        1.29584479
       30.66772       56.40682925        1.24647203
       30.76742       61.20097256        1.27257137
       30.86711       67.01992384        1.35849541
       30.96680       66.37661774        1.35973447
       31.06650       65.67211487        1.41813224
       31.16619       65.44070048        1.33102754
       31.26588       61.74239776        1.28494440
       31.36558       59.66048331        1.27954813
       31.46527       61.96888001        1.35700972
       31.56496       62.65622586        1.38645698
       31.66466       67.00583008        1.34103878
       31.76435       74.13951361        1.40946642
       31.86404       82.76456601        1.46998125
       31.96374       86.09942136        1.53418079
       32.06343       89.63251855        1.62005650
       32.16312       87.88936820        1.50754728
       32.26282       84.45733065        1.51380874
       32.36251       75.53687997        1.48853211
       32.46220       65.93443467        1.41524597
       32.56190       61.72880644        1.39350238
       32.66159       58.91843577        1.29275813
       32.76128       54.43752978        1.21456676
       32.86098       55.32813042        1.24289275
       32.96067       53.75764942        1.24040819
       33.06036       53.66053466        1.26189722
       33.16006       54.72566938        1.20018357
       33.25975       56.20533903        1.25588031
       33.35944       55.29598453        1.25239017
       33.45914       54.93700580        1.29578362
       33.55883       58.86858770        1.34467277
       33.65852       60.13258301        1.26732452
       33.75822       66.57834997        1.33145804
       33.85791       75.05772949        1.41978205
       33.95760       78.95445932        1.49922806
       34.05730       88.58527878        1.57292302
       34.15699       99.73767683        1.64280063
       34.25668      114.92409057        1.75773826
       34.35638      140.27757460        1.99297819
       34.45607      176.69205856        2.35693652
       34.55577      221.85227911        2.51799859
       34.65546      290.06141823        2.76339066
       34.75515      377.05412991        3.21423894
       34.85485      447.88944582        3.47962337
       34.95454      467.66067543        3.66755457
       35.05423      447.90338740        3.71078434
       35.15393      385.72030320        3.23069612
       35.25362      300.75198282        2.89407659
       35.35331      222.63430105        2.55262226
       35.45301      160.43219986        2.25956161
       35.55270      118.85080394        1.89287801
       35.65239       94.63433279        1.63102308
       35.75209       80.29846175        1.49116285
       35.85178       77.62127710        1.46417390
       35.95147       74.88565075        1.47194727
       36.05117       68.71184082        1.38070023
       36.15086       63.21320103        1.27315161
       36.25055       62.68733990        1.32460207
       36.35025       58.56210516        1.30517721
       36.44994       54.47122087        1.28375302
       36.54963       52.22475088        1.20657951
       36.64933       50.94405748        1.17386037
       36.74902       52.63368824        1.20570899
       36.84871       52.47417561        1.19518921
       36.94841       53.60333969        1.30641025
       37.04810       53.26424564        1.14826171
       37.14779       51.11814901        1.14787136
       37.24749       51.52817323        1.18454138
       37.34718       49.46733935        1.19013236
       37.44687       50.14430075        1.28718636
       37.54657       51.61032664        1.19223249
       37.64626       49.51839418        1.16325658
       37.74595       48.62598034        1.13466784
       37.84565       49.33395369        1.20931963
       37.94534       48.05866521        1.21590782
       38.04503       48.47504629        1.10373562
       38.14473       47.54609735        1.10378491
       38.24442       48.93256121        1.14028350
       38.34412       49.21845808        1.19564015
       38.44381       51.64543792        1.32444079
       38.54350       50.86915650        1.17168336
       38.64320       53.13997094        1.19401564
       38.74289       51.64422406        1.19242371
       38.84258       54.13720003        1.22392442
       38.94228       59.43281785        1.34530696
       39.04197       62.20201992        1.24112624
       39.14166       65.21321539        1.32208783
       39.24136       70.69594362        1.37307238
       39.34105       69.37306462        1.40751258
       39.44074       73.73956617        1.58308086
       39.54044       71.85614131        1.39719923
       39.64013       67.95318129        1.35439638
       39.73982       64.94340459        1.32930018
       39.83952       60.78609872        1.27718811
       39.93921       60.48488270        1.35086618
       40.03890       59.06295320        1.22185780
       40.13860       55.18673040        1.17939863
       40.23829       55.81675903        1.22810165
       40.33798       56.57780484        1.27502333
       40.43768       57.37901684        1.34347200
       40.53737       57.88471195        1.25241990
       40.63706       60.06446671        1.30266935
       40.73676       60.49196303        1.30524007
       40.83645       63.73965909        1.35115831
       40.93614       62.12318881        1.35618277
       41.03584       67.98100897        1.33533343
       41.13553       76.44316652        1.41790813
       41.23522       84.18798124        1.52427360
       41.33492      105.37885166        1.78596419
       41.43461      122.31670103        1.98620128
       41.53430      147.88094686        2.04609058
       41.63400      171.63783586        2.25320555
       41.73369      194.62614291        2.34800715
       41.83338      200.21060626        2.44518340
       41.93308      202.89954126        2.43977452
       42.03277      203.54795041        2.23336603
       42.13247      219.46854360        2.43769698
       42.23216      255.87483796        2.63756716
       42.33185      332.22295748        3.22971975
       42.43155      417.87175102        3.57312643
       42.53124      520.66008851        3.86848679
       42.63093      602.74043938        4.17618022
       42.73063      654.30970727        4.37599067
       42.83032      621.10265642        4.33575284
       42.93001      552.49458807        3.93058235
       43.02971      438.28649199        3.30071727
       43.12940      307.17601291        2.81301974
       43.22909      212.65075119        2.45696730
       43.32879      154.51434022        2.20518710
       43.42848      111.05148802        1.82758919
       43.52817       85.80402783        1.53679662
       43.62787       75.00924266        1.43217423
       43.72756       67.99864354        1.39583799
       43.82725       63.65438164        1.41012614
       43.92695       61.24758680        1.25427995
       44.02664       61.27445311        1.24859444
       44.12633       57.61436619        1.25571248
       44.22603       56.24065917        1.29128995
       44.32572       55.48669267        1.35178126
       44.42541       57.89262951        1.31841178
       44.52511       55.90713395        1.26066990
       44.62480       56.37027895        1.28379633
       44.72449       59.66372794        1.28007264
       44.82419       60.11520516        1.44180221
       44.92388       67.00182765        1.26973980
       45.02357       70.73387478        1.31535797
       45.12327       80.17313112        1.44263437
       45.22296       92.16816660        1.58775703
       45.32265      113.00458529        1.94549012
       45.42235      132.12136033        1.91582176
       45.52204      163.41270456        2.11037873
       45.62174      209.23508196        2.43394538
       45.72143      261.72861117        2.72587326
       45.82112      288.93909243        3.13754408
       45.92082      309.31945530        2.75778035
       46.02051      296.47935290        2.75647094
       46.12020      262.76303199        2.60081543
       46.21990      217.49109343        2.48318974
       46.31959      174.34481500        2.39803093
       46.41928      135.26574859        1.94904295
       46.51898      102.64773591        1.70615747
       46.61867       79.56178881        1.49395337
       46.71836       68.40154301        1.42071529
       46.81806       61.38461231        1.39550132
       46.91775       58.69215655        1.18947372
       47.01744       58.28574576        1.21366050
       47.11714       57.76546114        1.23580224
       47.21683       62.13595731        1.31958318
       47.31652       66.02833123        1.48408075
       47.41622       72.64793265        1.46712578
       47.51591       88.15805038        1.61964319
       47.61560      104.49551005        1.74906241
       47.71530      125.83693390        1.94091133
       47.81499      155.14825238        2.21097564
       47.91468      183.62065965        2.10567723
       48.01438      211.07792586        2.26034898
       48.11407      221.37564909        2.40208266
       48.21376      208.51342270        2.43291982
       48.31346      191.99793553        2.41659409
       48.41315      164.46995015        2.08322922
       48.51284      130.92650903        1.91884827
       48.61254      102.52319468        1.68997079
       48.71223       85.00946053        1.56631345
       48.81192       68.04966709        1.39756923
       48.91162       61.64875262        1.19242405
       49.01131       56.11919656        1.17749130
       49.11100       52.98429668        1.18529124
       49.21070       51.09056078        1.22192051
       49.31039       48.46603817        1.22474997
       49.41009       48.50800657        1.15751281
       49.50978       50.85483469        1.20980726
       49.60947       50.26202922        1.21151438
       49.70917       49.60175027        1.24812824
       49.80886       48.90777470        1.20618086
       49.90855       49.07674073        1.10065620
       50.00825       51.45856370        1.15095029
       50.10794       49.23627524        1.15135541
       50.20763       48.96964405        1.19962722
       50.30733       53.76623272        1.31692194
       50.40702       51.89630311        1.21321982
       50.50671       53.56656513        1.23628111
       50.60641       57.42594740        1.28202987
       50.70610       56.17581453        1.30466627
       50.80579       58.31808221        1.31186720
       50.90549       55.88237843        1.15769722
       51.00518       53.96081590        1.14762733
       51.10487       56.81199952        1.21735223
       51.20457       54.85054795        1.27332417
       51.30426       56.65088372        1.28740247
       51.40395       56.43342540        1.23181587
       51.50365       57.66137716        1.25942086
       51.60334       59.03223075        1.29953287
       51.70303       60.36511439        1.39558933
       51.80273       60.79963045        1.28475115
       51.90242       60.74313925        1.19979540
       52.00211       60.83602769        1.20639448
       52.10181       61.69732376        1.25339430
       52.20150       60.84005028        1.37066449
       52.30119       61.98991800        1.33283253
       52.40089       61.97573866        1.31181148
       52.50058       59.83371890        1.31319393
       52.60027       59.89415440        1.33180513
       52.69997       58.46659854        1.44196793
       52.79966       58.15847745        1.20909552
       52.89935       58.00484528        1.16508441
       52.99905       66.38081756        1.26704871
       53.09874       74.15876367        1.38263327
       53.19844       87.18739749        1.71729709
       53.29813      105.07951371        1.67617169
       53.39782      124.85872850        1.89106964
       53.49752      138.86638184        2.00399919
       53.59721      162.51060583        2.16771247
       53.69690      169.99846261        2.43311254
       53.79660      175.98326988        2.07406744
       53.89629      173.95487441        2.03969819
       53.99598      154.88126705        1.97048059
       54.09568      136.15044403        1.92824950
       54.19537      117.95750733        1.95645701
       54.29506      108.26527431        1.72160580
       54.39476       97.93361644        1.64970019
       54.49445       88.77196161        1.57139931
       54.59414       86.72793726        1.57683372
       54.69384       81.44467691        1.62987320
       54.79353       81.03635476        1.39417366
       54.89322       79.49952053        1.37587117
       54.99292       77.39857906        1.39725253
       55.09261       70.04059365        1.38195056
       55.19230       67.02764221        1.45167795
       55.29200       62.40954110        1.30358917
       55.39169       59.92514664        1.31795088
       55.49138       57.98289002        1.29154308
       55.59108       55.19280333        1.30038352
       55.69077       57.06731024        1.35711046
       55.79046       54.72246160        1.16176832
       55.89016       54.36467619        1.15518307
       55.98985       54.95718929        1.16893060
       56.08954       56.75133532        1.22707599
       56.18924       58.79534144        1.34798000
       56.28893       65.86995267        1.30608412
       56.38862       71.30992338        1.40582340
       56.48832       86.90153901        1.57929230
       56.58801       96.60702102        1.71367265
       56.68770      105.09452554        1.84513145
       56.78740      114.84976073        1.65128018
       56.88709      115.64013465        1.67354152
       56.98679      112.11358389        1.64919397
       57.08648      105.54939138        1.69608148
       57.18617       95.02933694        1.66593776
       57.28587       83.72787986        1.46062024
       57.38556       73.01698379        1.45157614
       57.48525       67.09074604        1.41794676
       57.58495       63.83813700        1.41473746
       57.68464       58.66291296        1.36778557
       57.78433       53.73507690        1.14499088
       57.88403       52.70863990        1.14718162
       57.98372       53.89950189        1.17859055
       58.08341       52.16863173        1.25362538
       58.18311       51.58432411        1.27514859
       58.28280       54.45442021        1.23413330
       58.38249       52.45136698        1.26552426
       58.48219       50.72301956        1.27129489
       58.58188       51.89063936        1.29995988
       58.68157       49.46245857        1.24358231
       58.78127       52.52879635        1.12109582
       58.88096       52.86052376        1.10804945
       58.98065       53.66971972        1.15904392
       59.08035       58.55189399        1.29200751
       59.18004       58.38761465        1.30876901
       59.27973       62.62068184        1.27896616
       59.37943       62.97809992        1.32489258
       59.47912       65.70283794        1.40882844
       59.57881       68.93735936        1.51189240
       59.67851       76.28641952        1.48310615
       59.77820       81.71213986        1.41122942
       59.87789       88.26208309        1.46170548
       59.97759       95.98887961        1.59488681
       60.07728      103.24110836        1.79153927
       60.17697      104.44844367        1.71664423
       60.27667      106.39398848        1.68455608
       60.37636      106.64052509        1.71923572
       60.47605      104.62146430        1.77640875
       60.57575      100.48349169        1.90775233
       60.67544       92.39091696        1.57125882
       60.77514       87.08302395        1.45005173
       60.87483       77.53002251        1.34130886
       60.97452       71.36443792        1.35548551
       61.07422       66.03994692        1.46458217
       61.17391       66.33625776        1.27153645
       61.27360       65.49336908        1.30825851
       61.37330       67.85349827        1.38112269
       61.47299       66.58206642        1.42818429
       61.57268       66.49010164        1.62297201
       61.67238       69.65821085        1.35405552
       61.77207       69.50757878        1.31731687
       61.87176       69.97873735        1.30706899
       61.97146       68.34161717        1.34097252
       62.07115       68.76102446        1.52341717
       62.17084       65.58621997        1.30337999
       62.27054       66.53330233        1.36883826
       62.37023       60.90606631        1.36157767
       62.46992       64.35879934        1.44778614
       62.56962       56.45172552        1.52249465
       62.66931       58.55894821        1.24928320
       62.76900       58.14812356        1.21333722
       62.86870       63.73968000        1.24281276
       62.96839       67.64228669        1.32124618
       63.06808       75.63838795        1.55517978
       63.16778       85.76883898        1.47047675
       63.26747      102.71359629        1.66611689
       63.36716      115.32846257        1.83285594
       63.46686      136.35916926        2.05414944
       63.56655      149.85322896        2.28866168
       63.66624      169.12594722        2.06779509
       63.76594      191.22003048        2.13717395
       63.86563      205.23465311        2.20807855
       63.96532      204.03945188        2.30350493
       64.06502      199.77783496        2.44140468
       64.16471      179.89545129        2.14148510
       64.26440      156.43446930        2.07738928
       64.36410      132.94139241        1.95244634
       64.46379      108.48237403        1.86397185
       64.56349       98.03271692        1.80307767
       64.66318       85.94403878        1.47728501
       64.76287       70.77485111        1.32356462
       64.86257       62.88233409        1.24548167
       64.96226       60.78883229        1.28268733
       65.06195       56.37754784        1.33554947
       65.16165       53.63456516        1.17500330
       65.26134       53.20936402        1.19772227
       65.36103       53.59402345        1.25432499
       65.46073       55.03024124        1.31284732
       65.56042       53.05236632        1.34622805
       65.66011       55.82256049        1.20422860
       65.75981       56.68184692        1.20135782
       65.85950       58.31180875        1.21079655
       65.95919       60.85575637        1.29490623
       66.05889       61.61530560        1.34773416
       66.15858       67.31551989        1.33978313
       66.25827       80.66538074        1.51737127
       66.35797       92.75037633        1.69550369
       66.45766      104.94899800        1.91687724
       66.55735      121.64683275        2.06404985
       66.65705      134.85771762        1.92825712
       66.75674      151.51130242        1.99239756
       66.85643      164.61024873        2.05367625
       66.95613      174.44540094        2.19863401
       67.05582      173.16795267        2.20676411
       67.15551      166.49546587        2.05865365
       67.25521      156.51908810        2.09451874
       67.35490      145.03403357        2.12204991
       67.45459      129.11327659        2.11087990
       67.55429      105.87786757        1.83041505
       67.65398       92.67870115        1.53472877
       67.75367       77.07116436        1.38761571
       67.85337       74.09622431        1.37732713
       67.95306       73.38441355        1.46572291
       68.05275       79.66499380        1.44637080
       68.15245       87.18251963        1.50037605
       68.25214       95.39094252        1.66610114
       68.35184      107.90258684        1.84737142
       68.45153      114.04167327        2.09100541
       68.55122      117.18960447        1.82604677
       68.65092      127.41657310        1.77517495
       68.75061      132.27857162        1.82754417
       68.85030      130.82106533        1.85227827
       68.95000      128.58045029        2.08183200
       69.04969      118.75595988        1.68914270
       69.14938      101.47842803        1.60481762
       69.24908       90.54484866        1.61849085
       69.34877       82.01185230        1.59286591
       69.44846       76.19581581        1.78071643
       69.54816       65.21104209        1.28404914
       69.64785       59.20244544        1.20609778
       69.74754       53.64939536        1.15952900
       69.84724       52.32927982        1.17501929
       69.94693       50.18033586        1.29848827
       70.04662       48.67571460        1.05162370
       70.14632       46.31463325        1.06660628
       70.24601       46.79118008        1.14792998
       70.34570       48.23679656        1.23341501
       70.44540       48.79057144        1.46160101
       70.54509       47.86629033        1.13311979
       70.64478       48.67476265        1.14105646
       70.74448       49.93403991        1.17409296
       70.84417       49.63004018        1.21460973
       70.94386       49.93901658        1.33745933
       71.04356       50.68903858        1.11505341
       71.14325       51.69159196        1.17018201
       71.24294       51.23086737        1.22570105
       71.34264       54.62309071        1.34216345
       71.44233       54.01530908        1.48932199
       71.54202       53.69657526        1.20889819
       71.64172       53.96297091        1.17887651
       71.74141       53.21427636        1.14939621
       71.84110       51.97207731        1.17578553
       71.94080       52.16205074        1.28358743
       72.04049       51.68982816        1.08148309
       72.14019       52.64505297        1.13720419
       72.23988       51.66437708        1.17869415
       72.33957       54.10095306        1.34741337
       72.43927       50.00864959        1.42582665
       72.53896       53.14914736        1.17868484
       72.63865       52.61499679        1.14628540
       72.73835       55.65956417        1.15317781
       72.83804       59.77915553        1.26215588
       72.93773       60.60671156        1.34997402
       73.03743       62.24271863        1.18756960
       73.13712       65.89118729        1.28872954
       73.23681       68.00358563        1.37556035
       73.33651       69.05737152        1.52534002
       73.43620       70.36967063        1.66786078
       73.53589       68.11708878        1.32363127
       73.63559       67.82661887        1.30005217
       73.73528       68.85486511        1.30396509
       73.83497       64.22660779        1.33493091
       73.93467       62.36558542        1.38508022
       74.03436       61.60268729        1.21823866
       74.13405       59.44924880        1.24754254
       74.23375       57.01074493        1.27245497
       74.33344       57.87356543        1.41140138
       74.43313       56.61768337        1.44851482
       74.53283       54.46116386        1.20695708
       74.63252       55.71365991        1.21196180
       74.73221       57.56240138        1.22595576
       74.83191       58.64944702        1.31274685
       74.93160       60.70204270        1.35064519
       75.03129       67.70200448        1.26838650
       75.13099       74.11467712        1.37486397
       75.23068       83.55880276        1.52313897
       75.33037      100.77252885        1.83963193
       75.43007      104.71744951        1.90249517
       75.52976      121.04277723        1.77749229
       75.62945      142.27244469        1.92663483
       75.72915      156.18673098        2.01144935
       75.82884      163.65636326        2.21726406
       75.92854      161.70167121        2.06873425
       76.02823      168.92343202        1.98344072
       76.12792      177.66011390        2.12660650
       76.22762      167.45104314        2.17745956
       76.32731      163.83063918        2.43214418
       76.42700      154.55431995        2.22885371
       76.52670      133.82904956        1.91203569
       76.62639      124.70280265        1.82184575
       76.72608      107.21119257        1.66028982
       76.82578      101.44354365        1.86062771
       76.92547       95.14847940        1.44305125
       77.02516       95.34348630        1.49720645
       77.12486      107.41247057        1.67006272
       77.22455      119.98732399        1.88024064
       77.32424      128.96686236        2.39549551
       77.42394      140.54232618        1.99749365
       77.52363      148.78580978        1.98657118
       77.62332      159.28497006        2.04675478
       77.72302      168.74746928        2.11206614
       77.82271      176.07736385        2.53074157
       77.92240      177.10348931        1.94357960
       78.02210      175.79120002        2.08931815
       78.12179      169.01307825        2.18756731
       78.22148      157.25433104        2.23049688
       78.32118      140.47211850        2.44480758
       78.42087      128.27769543        1.83798871
       78.52056      110.42423218        1.76000334
       78.62026       99.64127967        1.65820965
       78.71995       83.43542679        1.52169189
       78.81964       76.75060723        1.62989722
       78.91934       68.33106861        1.19137210
       79.01903       63.97577791        1.26372370
       79.11872       59.09232856        1.26381180
       79.21842       57.87062205        1.33416259
       79.31811       57.17507551        1.49374779
       79.41780       59.00773589        1.23108615
       79.51750       57.18958846        1.23141722
       79.61719       58.30588304        1.24708521
       79.71689       60.39179529        1.31782309
       79.81658       60.52754218        1.39852842
       79.91627       61.80580901        1.19797026
       80.01597       60.95980817        1.22284628
       80.11566       63.73831445        1.30725386
       80.21535       64.83983384        1.40947006
       80.31505       68.07005651        1.71694477
       80.41474       66.03417847        1.29935458
       80.51443       67.95405203        1.31242198
       80.61413       68.60022494        1.36240075
       80.71382       69.83161569        1.42198928
       80.81351       72.48710126        1.62807118
       80.91321       76.38760918        1.23255815
       81.01290       83.81537866        1.39395223
       81.11259       95.52396470        1.60655762
       81.21229      108.91660841        1.85598411
       81.31198      119.02884547        2.16461416
       81.41167      137.09316593        1.81949823
       81.51137      165.76526431        2.05959892
       81.61106      192.34050938        2.31803775
       81.71075      211.44039212        2.51647157
       81.81045      228.80252373        2.77441869
       81.91014      261.67416236        2.28337988
       82.00983      295.04756908        2.59388369
       82.10953      319.43048601        3.02126576
       82.20922      345.71384457        3.49833011
       82.30891      362.21718136        3.75663533
       82.40861      367.51459273        3.07762283
       82.50830      365.39646543        3.06058481
       82.60799      358.56223070        3.26515785
       82.70769      350.65217882        3.51300943
       82.80738      351.45937164        3.36053054
       82.90707      324.80276116        2.62107559
       83.00677      303.26268634        2.69694821
       83.10646      285.57267814        3.07806091
       83.20615      260.62749532        3.27088278
       83.30585      238.80085911        2.96443538
       83.40554      200.49201497        2.25593809
       83.50524      172.18081890        2.03858852
       83.60493      144.12970385        2.05339708
       83.70462      124.88435272        2.15443514
       83.80432      109.25841308        1.76053787
       83.90401       90.24445078        1.34171229
       84.00370       81.05407853        1.32617433
       84.10340       69.65450570        1.46877102
       84.20309       66.51731112        1.74250413
       84.30278       64.05646419        1.39066111
       84.40248       63.39004632        1.22099228
       84.50217       62.44675538        1.18889157
       84.60186       63.83293707        1.35925670
       84.70156       64.94170444        1.79416022
       84.80125       63.72939725        1.23735955
       84.90094       62.64873695        1.10203598
       85.00064       61.61185814        1.12594970
       85.10033       65.13855383        1.37031035
       85.20002       65.78028270        2.36182260
       85.29972       64.47200064        1.23336776
       85.39941       65.48811102        1.26739122
       85.49910       65.64407464        1.23397850
       85.59880       67.15417253        1.40350832
       85.69849       67.52178165        2.52670391
       85.79818       66.22134437        1.17966977
       85.89788       65.38727177        1.14417564
       85.99757       63.67303942        1.16006035
       86.09726       64.84830172        1.34421213
       86.19696       69.20650967        2.66751701
       86.29665       65.02453126        1.22342976
       86.39634       64.39147156        1.23856114
       86.49604       65.27111760        1.22817187
       86.59573       60.27976865        1.25734976
       86.69542       62.08464005        2.66809885
       86.79512       58.70969145        1.07690031
       86.89481       58.83387053        1.06285186
       86.99451       58.11498366        1.09491257
       87.09420       55.37209857        1.19184475
       87.19389       52.52934959        2.74951719
       87.29359       54.11784883        1.13109153
       87.39328       51.74955003        1.12091550
       87.49297       50.77575754        1.07782970
       87.59267       50.76225644        1.09887773
       87.69236       53.57745997        3.37844735
       87.79205       51.09301527        1.02764695
       87.89175       51.28992089        1.02134297
       87.99144       50.26944703        1.05357522
       88.09113       51.51146632        1.13362297
       88.19083       45.47127575        5.63495727
       88.29052       49.71755291        1.12065572
       88.39021       49.83974570        1.12951584
       88.48991       51.61066125        1.10317507
       88.58960       50.96974049        1.06165153
       88.68929       40.81244529        7.35667650
       88.78899       47.66023389        0.99080040
       88.88868       48.64212687        0.97912719
       88.98837       49.97325151        1.03227155
       89.08807       48.17531527        1.03806895
       89.18776       68.29002778       10.06330433
       89.28745       49.20398121        1.06592837
       89.38715       52.30759221        1.11044176
       89.48684       54.40185776        1.10830379
       89.58653       55.94063558        1.10109435
       89.68623       45.01585947        8.00434925
       89.78592       59.10791065        1.09990128
       89.88561       62.40710411        1.10811970
       89.98531       68.61398937        1.19167877
       90.08500       74.23541382        1.28581069
       90.18469       79.08806356       11.07062940
       90.28439       83.28872423        1.39139729
       90.38408       88.53377525        1.45885575
       90.48377       94.67627254        1.48056988
       90.58347       99.28080914        1.49251679
       90.68316       98.54700505       11.58258880
       90.78286      101.38350279        1.44382327
       90.88255      106.40444376        1.43950379
       90.98224      105.56048443        1.48338824
       91.08194      104.83255357        1.52672441
       91.18163       82.36701956       10.79030051
       91.28132      103.15078191        1.55915903
       91.38102       97.22976603        1.55359875
       91.48071       93.47948514        1.48576745
       91.58040       83.36883001        1.35651480
       91.68010       76.58862937        9.83398386
       91.77979       79.30896354        1.26992552
       91.87948       72.47032763        1.19491073
       91.97918       66.77792612        1.19084025
       92.07887       62.57092529        1.20059206
       92.17856       69.16295702        9.59961915
       92.27826       62.51724355        1.23943411
       92.37795       63.07103642        1.27446883
       92.47764       63.56732482        1.21462577
       92.57734       70.21861573        1.23871384
       92.67703       78.03950294        8.47910891
       92.77672       74.30021478        1.22825260
       92.87642       82.61663222        1.27080671
       92.97611       93.78539415        1.41438228
       93.07580       99.90658302        1.66646354
       93.17550       97.67778633        3.09821566
       93.27519      103.43751567        1.56311756
       93.37488      103.94303780        1.52319612
       93.47458      106.27158172        1.55722365
       93.57427      107.76471923        1.81304287
       93.67396      107.26871983        2.44448543
       93.77366      109.87522087        1.53274322
       93.87335      110.99807280        1.47158937
       93.97304      106.31655099        1.50065060
       94.07274       99.30897691        1.88252613
       94.17243       96.88720550        2.12146712
       94.27212       90.31787427        1.52524236
       94.37182       88.06490212        1.46772593
       94.47151       81.06876990        1.34828834
       94.57121       75.02681585        1.71146692
       94.67090       74.89738314        1.72978612
       94.77059       69.83975277        1.29826134
       94.87029       67.62979867        1.16164227
       94.96998       62.28780434        1.12873587
       95.06967       60.67317398        1.28414536
       95.16937       59.35285556        1.73856011
       95.26906       62.86131528        1.38238064
       95.36875       58.45668097        1.20943944
       95.46845       59.78359798        1.17549873
       95.56814       58.61255154        1.33927098
       95.66783       57.24881516        1.48693210
       95.76753       55.56530349        1.21047561
       95.86722       55.06404235        1.02497979
       95.96691       54.63549783        1.05900157
       96.06661       52.39958744        1.32844964
       96.16630       53.88605518        1.43668454
       96.26599       52.11859027        1.26882096
       96.36569       53.99113728        1.15883482
       96.46538       49.71936513        1.07306215
       96.56507       49.02253989        1.31509274
       96.66477       48.14554797        1.26991046
       96.76446       45.39018609        1.10175741
       96.86415       48.04885855        0.98197960
       96.96385       48.16018766        1.01540975
       97.06354       47.83016492        1.36831347
       97.16323       49.11466408        1.32583551
       97.26293       50.39425061        1.26180066
       97.36262       49.00630160        1.15220807
       97.46231       50.88717071        1.08023286
       97.56201       48.30869247        1.33892552
       97.66170       52.18856678        1.25013689
       97.76139       49.99380277        1.11151073
       97.86109       53.50752114        1.03993155
       97.96078       55.69045138        1.08419094
       98.06047       56.48522628        1.51667086
       98.16017       55.49336726        1.33632758
       98.25986       54.24899747        1.26198289
       98.35956       56.38776853        1.21477560
       98.45925       56.52476181        1.13524885
       98.55894       59.55976968        1.52028207
       98.65864       57.82360306        1.28518969
       98.75833       61.20016138        1.23554624
       98.85802       62.54116825        1.16627505
       98.95772       65.35296820        1.18436319
       99.05741       70.86880508        1.71249797
       99.15710       70.92578907        1.47333781
       99.25680       73.35612355        1.45175529
       99.35649       80.40325180        1.44793564
       99.45618       83.72333816        1.37708177
       99.55588       85.46997147        1.85924158
       99.65557       86.22126548        1.54061890
       99.75526       89.62850978        1.47240255
       99.85496       88.14158386        1.38965391
       99.95465       88.51968183        1.36532575
      100.05434       88.35340342        1.94317562
      100.15404       90.39969750        1.65568804
      100.25373       91.78301212        1.64840819
      100.35342       89.67257895        1.62285801
      100.45312       91.29424913        1.49427546
      100.55281       91.21864559        1.96177706
      100.65250       85.09244381        1.54325123
      100.75220       82.34102224        1.40605010
      100.85189       78.64285307        1.31279729
      100.95158       75.14618667        1.24884016
      101.05128       73.09665929        1.75589743
      101.15097       72.42048159        1.44444821
      101.25066       72.51117118        1.42802940
      101.35036       71.84283654        1.43372170
      101.45005       71.20473502        1.34218914
      101.54974       75.30197661        1.71941410
      101.64944       76.62924559        1.41520279
      101.74913       77.50644413        1.34107841
      101.84882       82.60299479        1.34791093
      101.94852       82.63030107        1.42007956
      102.04821       90.11775436        1.78672626
      102.14791       87.83036700        1.58955553
      102.24760       92.13375225        1.61452658
      102.34729       86.81243889        1.56052111
      102.44699       92.68716226        1.64083125
      102.54668       94.47070679        1.73835255
      102.64637       93.07145369        1.54094541
      102.74607       95.15745120        1.48401061
      102.84576       96.73565566        1.46793559
      102.94545       96.01835670        1.66565338
      103.04515       98.22596429        1.78359759
      103.14484       92.07650155        1.61307024
      103.24453       90.63964830        1.57566392
      103.34423       91.22166001        1.56795099
      103.44392       88.24295661        1.67031531
      103.54361       90.42374116        1.64267686
      103.64331       85.71458780        1.45557606
      103.74300       83.91438353        1.37367941
      103.84269       82.14237437        1.33548823
      103.94239       78.99471576        1.57365893
      104.04208       81.09702517        1.54265532
      104.14177       77.61425052        1.46810461
      104.24147       80.92090754        1.49846345
      104.34116       80.38654198        1.50275176
      104.44085       79.41940889        1.69640545
      104.54055       82.06915344        1.56146669
      104.64024       79.14827324        1.44126619
      104.73993       76.42023799        1.35130851
      104.83963       72.95526586        1.27188788
      104.93932       70.82912514        1.51915582
      105.03901       70.85322131        1.43166590
      105.13871       69.86186592        1.36879500
      105.23840       68.76046777        1.35713001
      105.33809       64.70499274        1.32408285
      105.43779       64.09398524        1.53329990
      105.53748       61.64367576        1.34839216
      105.63717       60.66302032        1.22604681
      105.73687       57.54566052        1.13630932
      105.83656       57.78598567        1.10956456
      105.93626       52.46143647        1.33949788
      106.03595       54.09287418        1.23282622
      106.13564       52.44962929        1.17324114
      106.23534       51.47512553        1.17656304
      106.33503       51.19897444        1.18524544
      106.43472       48.38541478        1.36205065
      106.53442       48.64647342        1.18792079
      106.63411       48.88155607        1.08172178
      106.73380       47.73000310        1.01872517
      106.83350       48.47205828        1.01131308
      106.93319       49.22976056        1.32122503
      107.03288       49.63586868        1.17581907
      107.13258       51.42417741        1.16174627
      107.23227       53.57012199        1.20303812
      107.33196       52.34517386        1.18588889
      107.43166       51.09701373        1.40774413
      107.53135       53.40376490        1.24181437
      107.63104       58.18917442        1.18052255
      107.73074       59.10676186        1.14153812
      107.83043       59.98030639        1.13544157
      107.93012       63.82088894        1.54959057
      108.02982       65.91466621        1.37846352
      108.12951       66.20556368        1.31376513
      108.22920       67.13166830        1.30175185
      108.32890       67.59235269        1.29377839
      108.42859       68.32989452        1.65098265
      108.52828       71.83373939        1.43607754
      108.62798       73.47095838        1.31700360
      108.72767       73.38063338        1.26332357
      108.82736       73.95205264        1.29620296
      108.92706       73.10390221        1.63214197
      109.02675       74.09999914        1.43759580
      109.12644       76.02545048        1.42132203
      109.22614       71.11373284        1.37548662
      109.32583       72.54365573        1.51392293
      109.42552       72.38915740        1.59519532
      109.52522       74.46390758        1.45976463
      109.62491       70.57016128        1.35150797
      109.72461       67.51204437        1.26367599
      109.82430       63.71376514        1.14659980
      109.92399       64.38548261        1.49866628
      110.02369       61.86175065        1.28630089
      110.12338       58.62694807        1.24391771
      110.22307       58.46830305        1.23292993
      110.32277       54.34760016        1.21366864
      110.42246       56.11181574        1.49953587
      110.52215       53.21309528        1.23668687
      110.62185       53.05991494        1.16384009
      110.72154       52.72149557        1.08232596
      110.82123       52.52522543        1.11569513
      110.92093       51.25690068        1.28540040
      111.02062       53.23374755        1.21028991
      111.12031       53.62019613        1.22376117
      111.22001       52.92661174        1.19301521
      111.31970       54.68169204        1.31612478
      111.41939       56.79241820        1.38802279
      111.51909       51.99463412        1.20488494
      111.61878       56.87843217        1.18733616
      111.71847       59.12283473        1.12635359
      111.81817       62.73966353        1.25948629
      111.91786       66.15652598        1.36123091
      112.01755       66.12811395        1.32887761
      112.11725       69.59731304        1.37378271
      112.21694       69.54089345        1.36705601
      112.31663       70.99671558        1.52219242
      112.41633       75.46539244        1.54197010
      112.51602       77.31591610        1.43736147
      112.61571       79.52051314        1.39065099
      112.71541       83.96743092        1.34688817
      112.81510       85.58602438        1.52480158
      112.91479       88.49801389        1.57960728
      113.01449       87.84163214        1.54104980
      113.11418       88.60824595        1.54262816
      113.21387       88.11757478        1.53132656
      113.31357       90.63738015        1.72495360
      113.41326       90.83473447        1.64110004
      113.51296       93.93163102        1.56996674
      113.61265       93.17520640        1.50870857
      113.71234       91.14733513        1.42520745
      113.81204       92.83288346        1.64789591
      113.91173       88.82230075        1.56174822
      114.01142       87.63416294        1.53557850
      114.11112       86.58983597        1.52553603
      114.21081       87.19679745        1.54197917
      114.31050       85.80878330        1.73460726
      114.41020       84.74568722        1.59285357
      114.50989       84.52127820        1.48918450
      114.60958       82.26420160        1.42162224
      114.70928       78.24900413        1.33705580
      114.80897       74.39751758        1.47847582
      114.90866       74.35486859        1.39409991
      115.00836       71.08521493        1.35657632
      115.10805       71.30313526        1.36606486
      115.20774       71.48019750        1.38846702
      115.30744       70.85422915        1.58718340
      115.40713       72.26601319        1.45192988
      115.50682       71.94398473        1.36766088
      115.60652       70.53120410        1.30504180
      115.70621       72.47362310        1.27147941
      115.80590       72.26935756        1.48118144
      115.90560       75.74130147        1.37453063
      116.00529       74.83258259        1.38146028
      116.10498       80.31340306        1.44638838
      116.20468       86.01673548        1.53153803
      116.30437       88.81063876        1.85528233
      116.40406       90.21700099        1.62869705
      116.50376       93.84480976        1.56995039
      116.60345      100.45782526        1.55958929
      116.70314      109.39990007        1.57864315
      116.80284      122.21345048        1.98342968
      116.90253      127.21149830        1.82063142
      117.00222      136.16976091        1.86933277
      117.10192      142.11369462        1.96126973
      117.20161      147.62636914        2.02367176
      117.30131      151.08352157        2.45005539
      117.40100      156.52113766        2.09690149
      117.50069      167.79677815        2.06285323
      117.60039      171.27160571        1.99473622
      117.70008      179.40210339        1.97835273
      117.79977      182.63259153        2.44627000
      117.89947      189.62777992        2.16748792
      117.99916      188.92978240        2.18924147
      118.09885      194.68314197        2.26444668
      118.19855      192.43155772        2.35781335
      118.29824      197.43173983        2.61860532
      118.39793      197.79462814        2.37970436
      118.49763      200.89020647        2.26331692
      118.59732      198.56132964        2.17230638
      118.69701      199.65502135        2.26929189
      118.79671      195.60304169        2.42497525
      118.89640      190.17745792        2.22893758
      118.99609      182.02699241        2.17769932
      119.09579      182.70605547        2.20724014
      119.19548      173.56314116        2.34989772
      119.29517      175.56904340        2.45560506
      119.39487      169.01673891        2.21432262
      119.49456      160.33812111        2.03180695
      119.59425      154.13328419        1.93422961
      119.69395      148.21925600        2.00068816
      119.79364      143.23051362        1.98727949
      119.89333      136.18117705        1.87493801
      119.99303      129.71884204        1.78624043
      120.09272      130.60079310        1.83320737
      120.19241      127.64089012        2.03686619
      120.29211      125.06367978        1.99546021
      120.39180      123.39358090        1.89089095
      120.49149      119.94990008        1.73370090
      120.59119      120.34008683        1.68550468
      120.69088      117.32045639        1.79135574
      120.79057      116.87483745        1.74954042
      120.89027      118.13032044        1.72691772
      120.98996      116.37898705        1.70079131
      121.08966      116.87128949        1.71717354
      121.18935      120.24196392        1.99674392
      121.28904      122.97557809        1.96831214
      121.38874      117.02062246        1.81531776
      121.48843      116.35796705        1.70968193
      121.58812      115.38610748        1.62372627
      121.68782      121.26761979        1.84446844
      121.78751      117.67603464        1.73115963
      121.88720      121.00840996        1.73325768
      121.98690      118.46825967        1.72766522
      122.08659      119.31317098        1.76858876
      122.18628      119.69522382        2.05497717
      122.28598      117.71063548        1.91625814
      122.38567      117.35637632        1.83247956
      122.48536      115.23613131        1.71754607
      122.58506      117.31947094        1.64145551
      122.68475      112.45584812        1.82079117
      122.78444      111.16634338        1.70454042
      122.88414      106.20171933        1.65161388
      122.98383      106.33662690        1.68653342
      123.08352      104.05233211        1.65392215
      123.18322       99.53218070        1.88633356
      123.28291      100.50988958        1.72284811
      123.38260       98.09615270        1.64294623
      123.48230       98.36020345        1.58563674
      123.58199       94.39196103        1.45164623
      123.68168       92.30858556        1.63797656
      123.78138       91.88920756        1.47440831
      123.88107       91.98349852        1.44106199
      123.98076       89.76961972        1.44983661
      124.08046       86.37277464        1.40698973
      124.18015       85.14714230        1.58111017
      124.27984       85.62556587        1.42056934
      124.37954       81.85064669        1.31043902
      124.47923       78.15456392        1.24993943
      124.57893       76.72276763        1.31936161
