        5.04651       57.98015915        2.59647727
        5.14621       54.76062246        2.43161666
        5.24590       55.00214002        2.40204649
        5.34559       57.30438060        2.24888922
        5.44529       56.11055464        2.42086621
        5.54498       55.39093263        2.02322742
        5.64467       53.85665332        1.97746578
        5.74437       56.40788297        1.82698813
        5.84406       55.22678609        1.82937197
        5.94375       53.07786580        1.79088823
        6.04345       55.94564301        1.78675638
        6.14314       49.83087822        1.54365239
        6.24283       55.96716819        1.69030677
        6.34253       54.36534381        1.58887574
        6.44222       53.20493759        1.65500980
        6.54191       53.35362402        1.57006490
        6.64161       52.47302448        1.47501142
        6.74130       51.60191713        1.46857993
        6.84099       52.08715095        1.46481102
        6.94069       53.47451422        1.50661329
        7.04038       54.07705087        1.39855572
        7.14007       50.13551015        1.34364432
        7.23977       51.62651382        1.33970931
        7.33946       52.55628965        1.37245539
        7.43915       52.12948909        1.34901502
        7.53885       50.67341693        1.30543436
        7.63854       51.34806351        1.25601292
        7.73823       50.97891846        1.29947956
        7.83793       52.99106817        1.28218957
        7.93762       52.61713758        1.33276338
        8.03732       52.91254898        1.19862030
        8.13701       49.65331366        1.15574415
        8.23670       51.43107188        1.19292427
        8.33640       52.57101202        1.20645174
        8.43609       53.74318721        1.27533201
        8.53578       52.69304933        1.17619082
        8.63548       54.05802613        1.17769148
        8.73517       53.44121744        1.14861073
        8.83486       50.59501633        1.12021489
        8.93456       53.83502151        1.14972293
        9.03425       52.10327840        1.09789154
        9.13394       51.93839201        1.09821032
        9.23364       55.52625819        1.15223400
        9.33333       50.94864152        1.12600735
        9.43302       51.60157272        1.13364727
        9.53272       51.93038857        1.09884342
        9.63241       52.64697699        1.13770031
        9.73210       53.81389062        1.14798130
        9.83180       50.24775682        1.15572933
        9.93149       53.22562532        1.18109241
       10.03118       53.53603300        1.13975803
       10.13088       53.64069617        1.11353811
       10.23057       55.51067594        1.18633108
       10.33026       53.69738428        1.20600193
       10.42996       52.40653934        1.17504050
       10.52965       57.28549851        1.18996897
       10.62934       53.94273485        1.15736621
       10.72904       56.63872467        1.20358896
       10.82873       56.10915522        1.19189009
       10.92842       56.81573882        1.21950543
       11.02812       56.31527867        1.15668749
       11.12781       56.17687772        1.19669877
       11.22750       54.69224498        1.19248132
       11.32720       54.77313832        1.22546492
       11.42689       56.25595239        1.19891570
       11.52658       57.93104099        1.20220569
       11.62628       56.45425137        1.19959799
       11.72597       58.27664196        1.24477326
       11.82567       59.06141616        1.28800905
       11.92536       59.12537043        1.20599862
       12.02505       61.41452139        1.23494539
       12.12475       64.87894865        1.26829952
       12.22444       67.67435302        1.37365977
       12.32413       69.96890176        1.41809352
       12.42383       80.81315948        1.44698077
       12.52352       84.39239147        1.46950216
       12.62321       95.19686218        1.60526861
       12.72291      110.00490643        1.67949232
       12.82260      126.84227390        1.96077782
       12.92229      140.33924973        1.87325803
       13.02199      162.55168377        2.00055711
       13.12168      191.33804583        2.20899386
       13.22137      223.35103957        2.46503998
       13.32107      256.06043974        2.72550877
       13.42076      292.52052415        2.80572733
       13.52045      328.23092135        3.00988512
       13.62015      342.50212763        2.98076355
       13.71984      334.45283989        3.06992322
       13.81953      315.87360924        3.03421296
       13.91923      279.31717902        2.67951350
       14.01892      228.43546508        2.35858506
       14.11861      176.40502201        2.16151771
       14.21831      138.29808055        1.91507458
       14.31800      115.93016000        1.84570505
       14.41769       88.49520820        1.55228356
       14.51739       73.32239487        1.37818799
       14.61708       65.43587180        1.30510417
       14.71677       56.78696889        1.23537624
       14.81647       55.85266079        1.28346921
       14.91616       54.34322395        1.16419991
       15.01585       50.32722996        1.14040005
       15.11555       50.95122438        1.16077411
       15.21524       50.86641168        1.19535629
       15.31493       49.24409512        1.20443336
       15.41463       50.24467243        1.17799438
       15.51432       50.83353168        1.14818793
       15.61402       49.92492969        1.16665664
       15.71371       48.66316011        1.14385705
       15.81340       50.72421561        1.21497245
       15.91310       50.48440523        1.17773189
       16.01279       48.40726124        1.10414365
       16.11248       50.60947200        1.15938736
       16.21218       48.86780063        1.17076279
       16.31187       51.07759917        1.19996116
       16.41156       50.42555048        1.17004953
       16.51126       51.25422547        1.19960505
       16.61095       51.24399063        1.15657746
       16.71064       49.97983667        1.17828243
       16.81034       51.62092559        1.20116393
       16.91003       52.22490050        1.17335247
       17.00972       56.05393577        1.16713200
       17.10942       60.22153849        1.27880678
       17.20911       61.10369602        1.29953919
       17.30880       65.12208387        1.35340515
       17.40850       67.69525989        1.37965456
       17.50819       72.89337298        1.39036228
       17.60788       73.84770800        1.44292053
       17.70758       77.11490707        1.48073846
       17.80727       76.17563356        1.48981397
       17.90696       73.31140674        1.36637277
       18.00666       70.77759593        1.36601410
       18.10635       65.73273787        1.28024913
       18.20604       59.28415734        1.33350834
       18.30574       59.03107192        1.26820466
       18.40543       54.76635158        1.19113756
       18.50512       56.55244668        1.24868639
       18.60482       53.52818115        1.19565936
       18.70451       53.55685362        1.26386516
       18.80420       52.58067957        1.17640146
       18.90390       53.54426349        1.17449889
       19.00359       52.99024221        1.13784251
       19.10328       51.01527312        1.18109548
       19.20298       49.67665333        1.20170612
       19.30267       47.34922354        1.12657212
       19.40237       46.88639503        1.10834672
       19.50206       48.64661695        1.15741597
       19.60175       46.25669167        1.11587757
       19.70145       46.85104325        1.17761923
       19.80114       47.32725670        1.12258199
       19.90083       48.63904575        1.09962497
       20.00053       48.46256103        1.11709714
       20.10022       49.30049517        1.13511498
       20.19991       46.77216466        1.18193111
       20.29961       49.22574906        1.14898353
       20.39930       52.07281639        1.21756479
       20.49899       52.44662054        1.20071447
       20.59869       51.56051703        1.21225743
       20.69838       53.13453169        1.27607316
       20.79807       54.99357536        1.23830837
       20.89777       51.50614258        1.17114596
       20.99746       56.89460343        1.24335837
       21.09715       58.26522005        1.32539799
       21.19685       58.51049091        1.32127347
       21.29654       58.93044535        1.29353110
       21.39623       59.10067545        1.29547370
       21.49593       57.63718845        1.26098319
       21.59562       55.07375424        1.26219086
       21.69531       49.96461877        1.25024281
       21.79501       51.02634919        1.15585430
       21.89470       47.60923702        1.09122727
       21.99439       48.55246602        1.14874370
       22.09409       47.26039645        1.13611220
       22.19378       44.94344162        1.17649743
       22.29347       44.55647593        1.09098204
       22.39317       46.66145667        1.14546285
       22.49286       43.97901919        1.11105689
       22.59255       46.68541983        1.15830339
       22.69225       49.16828828        1.25276890
       22.79194       47.77478557        1.10899052
       22.89163       47.91285389        1.08888280
       22.99133       48.83712653        1.12985777
       23.09102       50.10125925        1.18854794
       23.19072       51.01595068        1.20221612
       23.29041       50.90750598        1.18598038
       23.39010       51.95844030        1.21075645
       23.48980       49.86271146        1.19030566
       23.58949       48.95102195        1.19515076
       23.68918       48.66662178        1.25310869
       23.78888       49.50239939        1.12635166
       23.88857       47.47496957        1.11739942
       23.98826       45.39195946        1.11693492
       24.08796       44.66277678        1.08631263
       24.18765       45.93980784        1.18056862
       24.28734       44.80447903        1.10999653
       24.38704       46.06045662        1.14430772
       24.48673       45.15442688        1.12890946
       24.58642       45.08531214        1.16536721
       24.68612       46.70479635        1.18461327
       24.78581       45.41511314        1.07678087
       24.88550       45.72226668        1.07998723
       24.98520       46.05075444        1.12396496
       25.08489       45.99743857        1.14574132
       25.18458       48.30553415        1.19889712
       25.28428       48.03354705        1.15225329
       25.38397       49.95049824        1.16939201
       25.48366       51.52955894        1.19490372
       25.58336       53.13555929        1.26477452
       25.68305       55.99506500        1.27350503
       25.78274       67.18964469        1.31705895
       25.88244       79.77173299        1.47175132
       25.98213      105.16153078        1.70468491
       26.08182      132.17688110        1.96242855
       26.18152      161.11417929        2.22033967
       26.28121      184.49650391        2.24833727
       26.38090      200.04653358        2.36151959
       26.48060      196.45071518        2.40436288
       26.58029      182.14214666        2.41446151
       26.67998      164.82586865        2.16880427
       26.77968      135.74518791        1.94382130
       26.87937      100.75695564        1.64951039
       26.97907       85.34055402        1.50516441
       27.07876       74.47937883        1.51376444
       27.17845       73.60648393        1.43815403
       27.27815       75.47460394        1.42224921
       27.37784       83.62972116        1.55585593
       27.47753       86.79498720        1.56176656
       27.57723       86.76964068        1.63579012
       27.67692       87.66894100        1.60498984
       27.77661       77.79025728        1.44258151
       27.87631       69.44059784        1.34003294
       27.97600       63.91574026        1.31444926
       28.07569       61.24855959        1.36179670
       28.17539       54.59666393        1.23060859
       28.27508       53.13255743        1.21448527
       28.37477       50.03420476        1.20646429
       28.47447       50.32430258        1.20051921
       28.57416       53.04208289        1.33261963
       28.67385       55.52542771        1.21314710
       28.77355       51.78447362        1.15026817
       28.87324       56.92328336        1.23832861
       28.97293       59.22247339        1.26613587
       29.07263       59.71125843        1.38585832
       29.17232       63.02667726        1.29950576
       29.27201       57.37322568        1.26251505
       29.37171       53.44169289        1.25330659
       29.47140       52.65260245        1.22963603
       29.57109       52.75350765        1.30516726
       29.67079       47.94387637        1.13256253
       29.77048       47.85208005        1.13409966
       29.87017       49.66170493        1.13274055
       29.96987       48.28928745        1.17112745
       30.06956       48.73823923        1.21385447
       30.16925       48.75001277        1.14305705
       30.26895       48.89355671        1.14911749
       30.36864       49.88150965        1.17967732
       30.46833       53.27890637        1.23168872
       30.56803       54.53607323        1.31638614
       30.66772       58.88144129        1.27304662
       30.76742       59.24715165        1.25143258
       30.86711       62.44417216        1.31048757
       30.96680       64.84874040        1.34330506
       31.06650       66.36683467        1.42499414
       31.16619       63.94941885        1.31510142
       31.26588       61.38487519        1.28061456
       31.36558       59.25979666        1.27464071
       31.46527       58.54176259        1.31818767
       31.56496       62.80810516        1.38750669
       31.66466       64.75847666        1.31764887
       31.76435       74.07308707        1.40818551
       31.86404       81.18794564        1.45516483
       31.96374       86.99875196        1.54151454
       32.06343       88.73891303        1.61117156
       32.16312       85.72538003        1.48807711
       32.26282       79.63596919        1.46904225
       32.36251       75.25975998        1.48510337
       32.46220       66.12798709        1.41668102
       32.56190       62.27282069        1.39901376
       32.66159       59.95349517        1.30351292
       32.76128       56.33798858        1.23510093
       32.86098       58.29742979        1.27535566
       32.96067       54.05483684        1.24327393
       33.06036       54.26554343        1.26843533
       33.16006       54.00416566        1.19166792
       33.25975       53.61722874        1.22594954
       33.35944       55.26213085        1.25143034
       33.45914       58.42308976        1.33581436
       33.55883       58.66618514        1.34173334
       33.65852       59.65523193        1.26168365
       33.75822       66.06432025        1.32567568
       33.85791       73.28652771        1.40219944
       33.95760       84.12447809        1.54710707
       34.05730       90.79595244        1.59182261
       34.15699      101.57254774        1.65719091
       34.25668      115.44821932        1.76096871
       34.35638      136.92971033        1.96792284
       34.45607      179.85033767        2.37708726
       34.55577      222.53204034        2.52076832
       34.65546      299.13488925        2.80589310
       34.75515      378.90237958        3.22086536
       34.85485      446.29123082        3.47166735
       34.95454      470.22273843        3.67626845
       35.05423      440.09395637        3.67566441
       35.15393      397.78777562        3.28073372
       35.25362      301.97413070        2.89876453
       35.35331      225.08873004        2.56570873
       35.45301      167.21009120        2.30629343
       35.55270      122.44034852        1.92061327
       35.65239       97.01860943        1.65082380
       35.75209       82.09046654        1.50711389
       35.85178       78.39580689        1.47082621
       35.95147       72.70256669        1.44955691
       36.05117       71.42559793        1.40719000
       36.15086       63.60308572        1.27650326
       36.25055       61.58401358        1.31223999
       36.35025       57.26887376        1.29003431
       36.44994       53.73612031        1.27444281
       36.54963       55.80008744        1.24678161
       36.64933       51.86161867        1.18387873
       36.74902       53.23703108        1.21206870
       36.84871       52.93996700        1.19995042
       36.94841       53.13896325        1.30012046
       37.04810       51.60665883        1.12966846
       37.14779       50.25543789        1.13758658
       37.24749       50.16189409        1.16813865
       37.34718       49.90093676        1.19480607
       37.44687       50.23638218        1.28778002
       37.54657       48.42379253        1.15418058
       37.64626       47.72388442        1.14138752
       37.74595       50.66169630        1.15772662
       37.84565       51.03503600        1.22950085
       37.94534       48.81362767        1.22489067
       38.04503       50.23538891        1.12315114
       38.14473       50.07581851        1.13234869
       38.24442       47.93126103        1.12799821
       38.34412       49.69288848        1.20085706
       38.44381       49.20219029        1.29202784
       38.54350       51.76852584        1.18149021
       38.64320       52.24490024        1.18333611
       38.74289       52.28807274        1.19930978
       38.84258       53.89814441        1.22064807
       38.94228       56.96550994        1.31636726
       39.04197       60.73634831        1.22579055
       39.14166       69.88682225        1.36823991
       39.24136       71.42225411        1.37950985
       39.34105       69.77733565        1.41098028
       39.44074       71.02787092        1.55283947
       39.54044       72.42581010        1.40211147
       39.64013       67.13516226        1.34556324
       39.73982       66.38938519        1.34346895
       39.83952       63.80175019        1.30802411
       39.93921       60.89494217        1.35483495
       40.03890       56.81862602        1.19777352
       40.13860       57.48068430        1.20320568
       40.23829       55.25650462        1.22133746
       40.33798       56.46846839        1.27320098
       40.43768       56.79672958        1.33599671
       40.53737       57.56822119        1.24840400
       40.63706       57.64816728        1.27550385
       40.73676       61.39752339        1.31441176
       40.83645       59.83240865        1.30830956
       40.93614       63.70271409        1.37276153
       41.03584       67.52041725        1.33016999
       41.13553       74.19754490        1.39617561
       41.23522       87.92402863        1.55721880
       41.33492      107.14998532        1.80019813
       41.43461      124.07397164        1.99962678
       41.53430      148.64087535        2.05045973
       41.63400      175.56679707        2.27812344
       41.73369      192.66172333        2.33490521
       41.83338      195.61167280        2.41545067
       41.93308      201.92378352        2.43271204
       42.03277      209.37434170        2.26453511
       42.13247      220.99551180        2.44518210
       42.23216      264.38760752        2.68066148
       42.33185      336.25313368        3.24823921
       42.43155      411.61391984        3.54392097
       42.53124      510.54150239        3.82768706
       42.63093      594.92371275        4.14607800
       42.73063      628.64869520        4.28371247
       42.83032      615.29065550        4.31266411
       42.93001      550.78209101        3.92251629
       43.02971      434.29051011        3.28371674
       43.12940      316.64626129        2.85570031
       43.22909      222.33099990        2.51197357
       43.32879      153.66021467        2.19801526
       43.42848      115.79084897        1.86563650
       43.52817       90.50796189        1.57789721
       43.62787       75.55875120        1.43677927
       43.72756       69.79797637        1.41362597
       43.82725       63.69708563        1.40995384
       43.92695       59.15132572        1.23197186
       44.02664       57.80490305        1.21202497
       44.12633       58.34209331        1.26307027
       44.22603       57.73418234        1.30779138
       44.32572       55.87236876        1.35586665
       44.42541       56.83770999        1.30569625
       44.52511       58.18168249        1.28557151
       44.62480       58.47087112        1.30699371
       44.72449       58.42069256        1.26603104
       44.82419       62.67545840        1.47164151
       44.92388       66.37557697        1.26318420
       45.02357       71.43121533        1.32125200
       45.12327       80.86986240        1.44826063
       45.22296       91.56491164        1.58179410
       45.32265      111.55991417        1.93203242
       45.42235      134.02199204        1.92879975
       45.52204      163.72924659        2.11148241
       45.62174      209.75598116        2.43591038
       45.72143      254.29621193        2.68498146
       45.82112      283.24746428        3.10447222
       45.92082      303.45215169        2.72971307
       46.02051      297.64664933        2.76075656
       46.12020      259.36857163        2.58248788
       46.21990      223.87917314        2.51880995
       46.31959      173.60256991        2.39176918
       46.41928      143.94152543        2.01026879
       46.51898      108.82063095        1.75628641
       46.61867       84.44765340        1.53870032
       46.71836       69.02184441        1.42651907
       46.81806       65.35458605        1.43946080
       46.91775       57.99496757        1.18181606
       47.01744       56.95622695        1.19913170
       47.11714       60.44714066        1.26370096
       47.21683       62.78249099        1.32585204
       47.31652       67.72290244        1.50240402
       47.41622       77.68429457        1.51670126
       47.51591       90.82207627        1.64333356
       47.61560      104.11775598        1.74507603
       47.71530      131.64906084        1.98472569
       47.81499      151.95913515        2.18689228
       47.91468      182.31977403        2.09715490
       48.01438      209.52161749        2.25085568
       48.11407      217.43617444        2.37920673
       48.21376      204.77049543        2.40957518
       48.31346      185.70857645        2.37508153
       48.41315      162.58537433        2.07017927
       48.51284      136.37368304        1.95783726
       48.61254      105.25445143        1.71171400
       48.71223       86.99848389        1.58391620
       48.81192       71.25992099        1.42966001
       48.91162       61.48842188        1.19031915
       49.01131       57.57684497        1.19219901
       49.11100       52.41921157        1.17838873
       49.21070       51.89504818        1.23097253
       49.31039       51.57433088        1.26297130
       49.41009       50.28125792        1.17801205
       49.50978       48.81874286        1.18471167
       49.60947       48.50466180        1.18952580
       49.70917       50.46717215        1.25842950
       49.80886       49.04979487        1.20738199
       49.90855       49.52065834        1.10513230
       50.00825       51.61264620        1.15214897
       50.10794       50.88382035        1.16999048
       50.20763       51.01738918        1.22397834
       50.30733       51.99109114        1.29432412
       50.40702       52.81565900        1.22339638
       50.50671       54.91622107        1.25124344
       50.60641       54.81328082        1.25183633
       50.70610       55.84180443        1.30016928
       50.80579       56.47074626        1.29024545
       50.90549       56.63264458        1.16493847
       51.00518       54.33761228        1.15111359
       51.10487       53.71691197        1.18305501
       51.20457       54.76112608        1.27169756
       51.30426       56.90331700        1.28968663
       51.40395       57.59035961        1.24385778
       51.50365       58.97166252        1.27312389
       51.60334       59.64577671        1.30569724
       51.70303       58.95432857        1.37848328
       51.80273       61.07641742        1.28709369
       51.90242       60.79926341        1.19980094
       52.00211       61.85671266        1.21595794
       52.10181       61.41762903        1.24996376
       52.20150       64.69168628        1.41292828
       52.30119       62.42594362        1.33691841
       52.40089       63.49165176        1.32721930
       52.50058       62.39413344        1.34050210
       52.60027       60.12375828        1.33375368
       52.69997       56.90813010        1.42188863
       52.79966       59.05203022        1.21782743
       52.89935       60.15230992        1.18600036
       52.99905       64.97387449        1.25291202
       53.09874       73.56913103        1.37646560
       53.19844       90.60154916        1.75000575
       53.29813      103.99053083        1.66663692
       53.39782      123.64563597        1.88092076
       53.49752      135.06449982        1.97521082
       53.59721      158.26306607        2.13790367
       53.69690      169.82308702        2.43073455
       53.79660      174.13149036        2.06205364
       53.89629      167.90766721        2.00259576
       53.99598      155.50414884        1.97358160
       54.09568      137.00572221        1.93347126
       54.19537      120.64537784        1.97790398
       54.29506      108.45496921        1.72233655
       54.39476       97.54483726        1.64564620
       54.49445       89.53416243        1.57745024
       54.59414       85.39193081        1.56385104
       54.69384       83.44072350        1.64908436
       54.79353       79.01984263        1.37598944
       54.89322       78.91565955        1.37015300
       54.99292       75.14048103        1.37597880
       55.09261       73.25727998        1.41283968
       55.19230       67.44221211        1.45551352
       55.29200       63.50577111        1.31443538
       55.39169       62.54294401        1.34593615
       55.49138       57.02383594        1.28018602
       55.59108       55.89523672        1.30806373
       55.69077       54.17111927        1.32148321
       55.79046       54.54148139        1.15930560
       55.89016       55.82069717        1.17007267
       55.98985       54.69239386        1.16556477
       56.08954       56.52273102        1.22402994
       56.18924       61.35804552        1.37653583
       56.28893       66.26811596        1.30944286
       56.38862       74.95142432        1.44079477
       56.48832       87.86066928        1.58730963
       56.58801       97.44999063        1.72039586
       56.68770      103.89416677        1.83364718
       56.78740      111.27983111        1.62446710
       56.88709      117.20672148        1.68416134
       56.98679      111.02377144        1.64034549
       57.08648      103.38903713        1.67773896
       57.18617       92.27051577        1.64066680
       57.28587       81.51333244        1.44040197
       57.38556       76.00911550        1.48049590
       57.48525       65.36588792        1.39887377
       57.58495       61.02940980        1.38249332
       57.68464       56.50270588        1.34164732
       57.78433       52.50556309        1.13124702
       57.88403       53.02769896        1.15013295
       57.98372       53.73601235        1.17625453
       58.08341       52.45978019        1.25655421
       58.18311       51.04581526        1.26786856
       58.28280       54.22434778        1.23094790
       58.38249       52.99974615        1.27156289
       58.48219       50.25656419        1.26483384
       58.58188       53.98736419        1.32545219
       58.68157       49.40878198        1.24233405
       58.78127       52.80379304        1.12352119
       58.88096       53.35574433        1.11273584
       58.98065       55.74138711        1.18074555
       59.08035       54.09714295        1.24112111
       59.18004       58.59803706        1.31053300
       59.27973       59.57509423        1.24677070
       59.37943       62.80492670        1.32245450
       59.47912       65.45065534        1.40546446
       59.57881       73.57083248        1.56141349
       59.67851       78.32029931        1.50216515
       59.77820       84.03707746        1.43062629
       59.87789       92.37973662        1.49494420
       59.97759       98.02284728        1.61107288
       60.07728      100.49783622        1.76659798
       60.17697      107.05643911        1.73730746
       60.27667      104.00415387        1.66462757
       60.37636      107.58088690        1.72606613
       60.47605      104.47684849        1.77435925
       60.57575       98.05684645        1.88355258
       60.67544       94.92337650        1.59205977
       60.77514       87.72058594        1.45471600
       60.87483       78.68141798        1.35066721
       60.97452       73.43034404        1.37443454
       61.07422       68.18779480        1.48763785
       61.17391       66.00204929        1.26773248
       61.27360       64.08438021        1.29345144
       61.37330       66.25379754        1.36404212
       61.47299       67.25838194        1.43479499
       61.57268       70.16865265        1.66671373
       61.67238       71.48684836        1.37117242
       61.77207       71.13429837        1.33210756
       61.87176       72.00866564        1.32537751
       61.97146       68.97223643        1.34655706
       62.07115       71.09095939        1.54842863
       62.17084       68.49948876        1.33153817
       62.27054       63.87265740        1.34044840
       62.37023       63.05240413        1.38482979
       62.46992       64.40156325        1.44760464
       62.56962       63.50546589        1.61447432
       62.66931       58.69251124        1.25013879
       62.76900       60.70377215        1.23925639
       62.86870       66.14186254        1.26554138
       62.96839       72.29485288        1.36552640
       63.06808       76.45179617        1.56284734
       63.16778       88.99613170        1.49737019
       63.26747      101.57868491        1.65606234
       63.36716      121.20136271        1.87847168
       63.46686      136.46356565        2.05400488
       63.56655      145.65267403        2.25499602
       63.66624      164.89883773        2.04055887
       63.76594      191.00891194        2.13500659
       63.86563      201.41852172        2.18616889
       63.96532      206.43827257        2.31614686
       64.06502      196.46571554        2.41970200
       64.16471      178.68050869        2.13317947
       64.26440      159.90090770        2.09957656
       64.36410      137.55768419        1.98546971
       64.46379      116.59147168        1.93204832
       64.56349       98.89238879        1.81019179
       64.66318       85.11433193        1.46942036
       64.76287       72.39273098        1.33806934
       64.86257       65.64783051        1.27211426
       64.96226       60.07094867        1.27447341
       65.06195       57.67789736        1.35030550
       65.16165       54.54740487        1.18445407
       65.26134       52.97024488        1.19446911
       65.36103       53.40095898        1.25148018
       65.46073       54.26139540        1.30301002
       65.56042       52.86659087        1.34324293
       65.66011       55.16004939        1.19648370
       65.75981       57.38960446        1.20831002
       65.85950       59.53309626        1.22290129
       65.95919       61.88098577        1.30521600
       66.05889       65.56131117        1.38977566
       66.15858       68.68192606        1.35275679
       66.25827       79.95655419        1.50995971
       66.35797       92.99822429        1.69700478
       66.45766      104.92360906        1.91576662
       66.55735      115.70720576        2.01168963
       66.65705      132.89941470        1.91320023
       66.75674      146.93651841        1.96087858
       66.85643      165.33340334        2.05729647
       66.95613      172.18346493        2.18316607
       67.05582      173.59889891        2.20853530
       67.15551      170.06868931        2.07993890
       67.25521      159.92168630        2.11644945
       67.35490      140.59455309        2.08804167
       67.45459      124.98455218        2.07560620
       67.55429      113.38912950        1.89386234
       67.65398       92.29287843        1.53080872
       67.75367       80.44770941        1.41720442
       67.85337       74.10963416        1.37682074
       67.95306       74.41726515        1.47537826
       68.05275       77.23559233        1.42337190
       68.15245       84.67993567        1.47787754
       68.25214       94.89360183        1.66096225
       68.35184      103.82821878        1.81106965
       68.45153      112.14317988        2.07244124
       68.55122      118.91607002        1.83871881
       68.65092      125.64649109        1.76188670
       68.75061      131.17846980        1.81902756
       68.85030      127.86360999        1.83019535
       68.95000      126.67453693        2.06526325
       69.04969      121.76644115        1.70981729
       69.14938      103.28951697        1.61843676
       69.24908       93.44141085        1.64358925
       69.34877       83.08588318        1.60258780
       69.44846       71.99287452        1.72985847
       69.54816       68.10067560        1.31172147
       69.64785       58.65958494        1.19998128
       69.74754       55.56960921        1.17963529
       69.84724       53.19017786        1.18413713
       69.94693       52.17891069        1.32357878
       70.04662       50.64811625        1.07230041
       70.14632       47.08014969        1.07491980
       70.24601       47.88850383        1.16082364
       70.34570       48.01033929        1.22994121
       70.44540       47.80527516        1.44605280
       70.54509       47.63917935        1.12990004
       70.64478       48.23062307        1.13529909
       70.74448       50.41147424        1.17917047
       70.84417       53.70085223        1.26304196
       70.94386       50.83085369        1.34877155
       71.04356       49.86075890        1.10536542
       71.14325       51.49195339        1.16737550
       71.24294       54.03718034        1.25837029
       71.34264       56.56866274        1.36532334
       71.44233       54.65918900        1.49751826
       71.54202       56.54485669        1.24010104
       71.64172       54.34761398        1.18254323
       71.74141       54.38142024        1.16144677
       71.84110       56.25288337        1.22287326
       71.94080       51.68754892        1.27712769
       72.04049       51.86250170        1.08279700
       72.14019       51.49119042        1.12411041
       72.23988       52.90194280        1.19223195
       72.33957       50.27122143        1.29807571
       72.43927       51.96708134        1.45291013
       72.53896       50.24177449        1.14534953
       72.63865       54.41078100        1.16522136
       72.73835       54.67311788        1.14234883
       72.83804       57.52364180        1.23744923
       72.93773       59.78439758        1.34013024
       73.03743       62.49873182        1.18947396
       73.13712       65.87392205        1.28796865
       73.23681       68.47363494        1.37969575
       73.33651       66.79404451        1.49932798
       73.43620       67.18496106        1.62875266
       73.53589       66.47816345        1.30693547
       73.63559       68.65208076        1.30737710
       73.73528       67.19253400        1.28746216
       73.83497       65.68901617        1.34949317
       73.93467       66.35127691        1.42819870
       74.03436       60.88055123        1.21049057
       74.13405       61.22368499        1.26552181
       74.23375       57.80708114        1.28075872
       74.33344       58.76077083        1.42157015
       74.43313       58.47717679        1.47152988
       74.53283       56.95616308        1.23383595
       74.63252       57.76124189        1.23355412
       74.73221       57.79230143        1.22784747
       74.83191       61.27792599        1.34134912
       74.93160       64.53270552        1.39215868
       75.03129       68.84316464        1.27849610
       75.13099       73.60114003        1.36943946
       75.23068       85.56359842        1.54070496
       75.33037       94.50336353        1.78028297
       75.43007      106.30834378        1.91612212
       75.52976      119.04517819        1.76183494
       75.62945      134.47068795        1.87169857
       75.72915      147.36199600        1.95230481
       75.82884      159.69811491        2.18898508
       75.92854      162.04190572        2.06999026
       76.02823      167.52613979        1.97422421
       76.12792      170.36677892        2.08101978
       76.22762      166.13534014        2.16780046
       76.32731      160.35278356        2.40480154
       76.42700      156.75615737        2.24382333
       76.52670      140.28664724        1.95717121
       76.62639      124.22524678        1.81749264
       76.72608      113.47933128        1.70772921
       76.82578      101.80661330        1.86312497
       76.92547       95.58186017        1.44569364
       77.02516       99.93873082        1.53240751
       77.12486      109.79561623        1.68785647
       77.22455      120.86020804        1.88626258
       77.32424      129.99104300        2.40397615
       77.42394      137.85884348        1.97724308
       77.52363      146.75464471        1.97192441
       77.62332      154.54892745        2.01484413
       77.72302      165.44250047        2.09008702
       77.82271      174.67731973        2.51938924
       77.92240      176.29608363        1.93820668
       78.02210      171.48265856        2.06230529
       78.12179      166.88153078        2.17257696
       78.22148      155.05509984        2.21366493
       78.32118      140.63372333        2.44511073
       78.42087      127.21202789        1.82943373
       78.52056      112.72561610        1.77757928
       78.62026       95.77281242        1.62473695
       78.71995       85.78389493        1.54237913
       78.81964       72.91502501        1.58770589
       78.91934       73.34396641        1.23395078
       79.01903       65.37625144        1.27695742
       79.11872       61.63607726        1.29024990
       79.21842       60.40693960        1.36258141
       79.31811       58.94556643        1.51609744
       79.41780       56.19443972        1.20071018
       79.51750       59.42187972        1.25474256
       79.61719       60.93180159        1.27439097
       79.71689       62.09641281        1.33575887
       79.81658       60.46440928        1.39715415
       79.91627       58.85532172        1.16836828
       80.01597       61.53370019        1.22804978
       80.11566       64.77115604        1.31724607
       80.21535       62.11601316        1.37878234
       80.31505       67.40172590        1.70767127
       80.41474       67.06017077        1.30885635
       80.51443       68.31884700        1.31535313
       80.61413       69.33631884        1.36909777
       80.71382       70.46771566        1.42782779
       80.81351       73.82140001        1.64231069
       80.91321       77.49591613        1.24094669
       81.01290       89.47481347        1.43987157
       81.11259       99.17524074        1.63643424
       81.21229      110.95254448        1.87252722
       81.31198      126.55066669        2.23152909
       81.41167      144.07448271        1.86485517
       81.51137      167.21404834        2.06774193
       81.61106      190.09820037        2.30325798
       81.71075      214.44085843        2.53337755
       81.81045      229.02682240        2.77454069
       81.91014      260.29387422        2.27620983
       82.00983      289.96006799        2.56980911
       82.10953      322.47003898        3.03455668
       82.20922      334.27659161        3.43707003
       82.30891      350.98330280        3.69482782
       82.40861      361.52080364        3.05042133
       82.50830      355.99671538        3.01862569
       82.60799      357.11597700        3.25693873
       82.70769      337.58302229        3.44381637
       82.80738      346.16617524        3.33301959
       82.90707      326.31006485        2.62610326
       83.00677      296.31435483        2.66402882
       83.10646      280.82616539        3.05049217
       83.20615      257.42734553        3.24890726
       83.30585      236.33516447        2.94750161
       83.40554      205.27648520        2.28203988
       83.50524      179.26332905        2.07966086
       83.60493      148.37924863        2.08280756
       83.70462      128.42521489        2.18403686
       83.80432      113.80971995        1.79629742
       83.90401       98.82617148        1.40383827
       84.00370       83.66948493        1.34690684
       84.10340       75.12626728        1.52496450
       84.20309       66.79924523        1.74540916
       84.30278       64.97812393        1.40003263
       84.40248       64.82358848        1.23421687
       84.50217       63.05043672        1.19410143
       84.60186       63.99417121        1.36035543
       84.70156       62.68171659        1.76171615
       84.80125       61.50339897        1.21490461
       84.90094       62.12472445        1.09689353
       85.00064       61.96716730        1.12868749
       85.10033       65.02202558        1.36845026
       85.20002       63.99537414        2.32834369
       85.29972       63.80245671        1.22635482
       85.39941       65.83715862        1.27019680
       85.49910       65.89788120        1.23580546
       85.59880       66.01551549        1.39086440
       85.69849       65.63904742        2.48992040
       85.79818       65.76778835        1.17506482
       85.89788       63.87526959        1.13029035
       85.99757       64.68824584        1.16877698
       86.09726       66.74252598        1.36316821
       86.19696       65.15608883        2.58672368
       86.29665       64.38287444        1.21679233
       86.39634       65.36422025        1.24735148
       86.49604       65.33303710        1.22819313
       86.59573       59.58637792        1.24949293
       86.69542       63.45803064        2.69634062
       86.79512       59.46960736        1.08337882
       86.89481       56.94093192        1.04506413
       86.99451       59.10726011        1.10375210
       87.09420       53.67795146        1.17286162
       87.19389       54.61457939        2.80247741
       87.29359       54.54683729        1.13506139
       87.39328       51.19686249        1.11437994
       87.49297       48.34848516        1.05117905
       87.59267       47.25544887        1.05962368
       87.69236       46.48945634        3.14481686
       87.79205       51.26515356        1.02891005
       87.89175       50.49630269        1.01291665
       87.99144       50.18795144        1.05223427
       88.09113       51.42223953        1.13211693
       88.19083       51.53819332        5.99763325
       88.29052       48.31553155        1.10417959
       88.39021       49.55365459        1.12574062
       88.48991       48.84182597        1.07257773
       88.58960       49.62510273        1.04702339
       88.68929       34.15530539        6.72531750
       88.78899       51.62321326        1.03084100
       88.88868       48.47080061        0.97694642
       88.98837       50.10318228        1.03314256
       89.08807       47.78108553        1.03332354
       89.18776       59.02013325        9.34805020
       89.28745       51.55328262        1.09066772
       89.38715       49.75502238        1.08241378
       89.48684       51.60096836        1.07879404
       89.58653       55.85265956        1.09971958
       89.68623       57.55812654        9.05084027
       89.78592       56.80676122        1.07769608
       89.88561       61.66734069        1.10099815
       89.98531       65.87061813        1.16696416
       90.08500       73.60707805        1.27974208
       90.18469       66.28352976       10.12569564
       90.28439       82.18935100        1.38149704
       90.38408       88.04669790        1.45414582
       90.48377       94.30516667        1.47696940
       90.58347       98.62774020        1.48688472
       90.68316      106.44077853       12.03536995
       90.78286      101.76983270        1.44592907
       90.88255      100.84589397        1.40048524
       90.98224      104.27968358        1.47362068
       91.08194      103.50256529        1.51624392
       91.18163       98.31556706       11.78995935
       91.28132      103.89345969        1.56408655
       91.38102      101.41773024        1.58621180
       91.48071       96.86797640        1.51194348
       91.58040       87.65780465        1.39054286
       91.68010       67.38350015        9.21688769
       91.77979       80.15737560        1.27615281
       91.87948       73.07672015        1.19937477
       91.97918       66.96531118        1.19197060
       92.07887       65.79458496        1.23070559
       92.17856       62.75363541        9.13775307
       92.27826       64.05370017        1.25406419
       92.37795       65.40950362        1.29739152
       92.47764       65.55595406        1.23299878
       92.57734       70.56704294        1.24122892
       92.67703       64.05369247        7.67453686
       92.77672       75.55121810        1.23803609
       92.87642       82.71634269        1.27099503
       92.97611       92.02730140        1.40033450
       93.07580       96.30083759        1.63515887
       93.17550       94.15390970        3.04004693
       93.27519       96.75221390        1.51071419
       93.37488      103.37628693        1.51831246
       93.47458      106.82704445        1.56060407
       93.57427      112.08191852        1.84843682
       93.67396      112.39851231        2.50155826
       93.77366      108.78372544        1.52435510
       93.87335      109.08643827        1.45809721
       93.97304      100.81163760        1.46033265
       94.07274       99.00445280        1.87875706
       94.17243       95.24187274        2.10229215
       94.27212       89.22856181        1.51526416
       94.37182       89.16015867        1.47620497
       94.47151       81.41610535        1.35057077
       94.57121       77.74455697        1.74155651
       94.67090       71.76997656        1.69232398
       94.77059       71.11507808        1.30951913
       94.87029       65.40274207        1.14174205
       94.96998       64.39290122        1.14720922
       95.06967       64.14260297        1.31990531
       95.16937       62.76404335        1.78721628
       95.26906       63.45212455        1.38825315
       95.36875       60.33762631        1.22826055
       95.46845       61.10639821        1.18794219
       95.56814       56.84820624        1.31827228
       95.66783       57.49400719        1.48944161
       95.76753       56.05367638        1.21524615
       95.86722       54.77696286        1.02182463
       95.96691       55.91140475        1.07085186
       96.06661       53.77672972        1.34524045
       96.16630       52.09619798        1.41188512
       96.26599       48.98492059        1.22938455
       96.36569       50.86712732        1.12416902
       96.46538       49.88915238        1.07440545
       96.56507       48.35722122        1.30550760
       96.66477       50.60187865        1.30141671
       96.76446       47.75931327        1.12971968
       96.86415       47.64220706        0.97735214
       96.96385       47.34588924        1.00629739
       97.06354       50.14605385        1.40051872
       97.16323       50.13899622        1.33902288
       97.26293       50.97973184        1.26855252
       97.36262       48.65752831        1.14755914
       97.46231       48.69216334        1.05611118
       97.56201       51.87919792        1.38706074
       97.66170       52.30749791        1.25099094
       97.76139       52.61734212        1.13988393
       97.86109       55.63086896        1.05995702
       97.96078       53.78491420        1.06492011
       98.06047       55.95756739        1.50884906
       98.16017       52.59428941        1.30022307
       98.25986       56.02362370        1.28194937
       98.35956       56.36301432        1.21395023
       98.45925       58.26624131        1.15214566
       98.55894       58.25712003        1.50280573
       98.65864       59.49770417        1.30313957
       98.75833       60.26385483        1.22545529
       98.85802       64.73727979        1.18612217
       98.95772       68.10841686        1.20863573
       99.05741       69.86154084        1.69944434
       99.15710       69.95822410        1.46253275
       99.25680       72.51046180        1.44265814
       99.35649       77.79227088        1.42344825
       99.45618       81.55243836        1.35838450
       99.55588       81.42339393        1.81360545
       99.65557       87.37959866        1.55028553
       99.75526       87.98785801        1.45811177
       99.85496       88.61230979        1.39274444
       99.95465       90.13766549        1.37719426
      100.05434       87.10175743        1.92839395
      100.15404       89.11376660        1.64304259
      100.25373       95.29549269        1.67909173
      100.35342       87.44282514        1.60169479
      100.45312       88.91404491        1.47386888
      100.55281       87.65787514        1.92198503
      100.65250       86.92180664        1.55913737
      100.75220       82.58270540        1.40747867
      100.85189       80.32886299        1.32626546
      100.95158       73.73621765        1.23644009
      101.05128       73.52494623        1.76025287
      101.15097       74.26551490        1.46215640
      101.25066       72.83068147        1.43053184
      101.35036       73.51801990        1.44976091
      101.45005       73.88124477        1.36668376
      101.54974       72.29017992        1.68372726
      101.64944       74.83943500        1.39784861
      101.74913       76.88727462        1.33506952
      101.84882       83.10162310        1.35137717
      101.94852       82.47455683        1.41808264
      102.04821       89.45811109        1.77931833
      102.14791       87.21006694        1.58317231
      102.24760       88.64124263        1.58271051
      102.34729       86.50444083        1.55701983
      102.44699       89.47289408        1.61120898
      102.54668       91.38314170        1.70874119
      102.64637       91.37024865        1.52600695
      102.74607       95.46617769        1.48575149
      102.84576       96.25330770        1.46357605
      102.94545       95.49641845        1.66032909
      103.04515       90.32173443        1.70907217
      103.14484       93.13070572        1.62159521
      103.24453       88.85154192        1.55923188
      103.34423       89.90408149        1.55580130
      103.44392       88.78617479        1.67471301
      103.54361       90.71755695        1.64460681
      103.64331       87.16278038        1.46722303
      103.74300       83.73073312        1.37153773
      103.84269       84.37734638        1.35302058
      103.94239       81.95442129        1.60230005
      104.04208       80.56842854        1.53688618
      104.14177       80.67349521        1.49623315
      104.24147       81.99059515        1.50770032
      104.34116       79.39996254        1.49276532
      104.44085       78.81788065        1.68915846
      104.54055       80.55145134        1.54616971
      104.64024       80.37376638        1.45177803
      104.73993       78.68843467        1.37069631
      104.83963       75.83251516        1.29626255
      104.93932       74.68272448        1.55943074
      105.03901       72.71527084        1.44978599
      105.13871       71.21775017        1.38144596
      105.23840       67.19462293        1.34089907
      105.33809       67.45246187        1.35141218
      105.43779       62.37875277        1.51185883
      105.53748       62.92680048        1.36178962
      105.63717       60.61921147        1.22503957
      105.73687       59.79861603        1.15789950
      105.83656       55.81387710        1.08989036
      105.93626       55.06361492        1.37181203
      106.03595       54.27791264        1.23437395
      106.13564       53.69186133        1.18656026
      106.23534       49.91309230        1.15797799
      106.33503       53.26030975        1.20840224
      106.43472       48.11266415        1.35756923
      106.53442       49.46852439        1.19740013
      106.63411       45.96898670        1.04841056
      106.73380       48.13679744        1.02260180
      106.83350       49.69591953        1.02357442
      106.93319       49.30086840        1.32157480
      107.03288       50.13606872        1.18120679
      107.13258       50.16363473        1.14684122
      107.23227       50.82987491        1.17121377
      107.33196       51.50969267        1.17581192
      107.43166       54.65514299        1.45544701
      107.53135       53.92859497        1.24735144
      107.63104       56.64702930        1.16417627
      107.73074       59.73934920        1.14712920
      107.83043       62.38411748        1.15753685
      107.93012       64.77341481        1.56044746
      108.02982       62.07824496        1.33695253
      108.12951       64.47590777        1.29581637
      108.22920       68.10719593        1.31061940
      108.32890       66.91819379        1.28668908
      108.42859       67.41643934        1.63910506
      108.52828       72.54282957        1.44252217
      108.62798       71.48683243        1.29841226
      108.72767       72.53682086        1.25542572
      108.82736       74.68570816        1.30205295
      108.92706       70.97775202        1.60737447
      109.02675       72.86390629        1.42483911
      109.12644       73.38607235        1.39566217
      109.22614       72.22593698        1.38561945
      109.32583       75.83297884        1.54733423
      109.42552       72.78968930        1.59889127
      109.52522       70.80341989        1.42259707
      109.62491       66.88888346        1.31501138
      109.72461       67.32991474        1.26138323
      109.82430       62.64034643        1.13633540
      109.92399       61.31365842        1.46164957
      110.02369       60.36354087        1.26997899
      110.12338       59.57077773        1.25335661
      110.22307       56.29322217        1.20913143
      110.32277       56.05321620        1.23207408
      110.42246       57.62455840        1.51899794
      110.52215       55.78677517        1.26577349
      110.62185       54.58963628        1.18001912
      110.72154       53.77660384        1.09264111
      110.82123       53.83747373        1.12907939
      110.92093       50.50346580        1.27529834
      111.02062       55.76239106        1.23824270
      111.12031       52.88040262        1.21470001
      111.22001       55.03379044        1.21606386
      111.31970       57.01046700        1.34335111
      111.41939       56.09611764        1.37882046
      111.51909       53.74716283        1.22453552
      111.61878       55.82568894        1.17571316
      111.71847       60.00824028        1.13427065
      111.81817       62.16131562        1.25306685
      111.91786       66.85876466        1.36784235
      112.01755       67.23608206        1.33940136
      112.11725       70.14869518        1.37860791
      112.21694       73.37763440        1.40380695
      112.31663       71.11670817        1.52278585
      112.41633       78.23916685        1.56948557
      112.51602       77.86948047        1.44186460
      112.61571       79.73819091        1.39192536
      112.71541       82.73382755        1.33628706
      112.81510       87.33254384        1.53966975
      112.91479       87.29270939        1.56802849
      113.01449       87.88389909        1.54071661
      113.11418       87.91792805        1.53586615
      113.21387       91.15896634        1.55698221
      113.31357       91.34188400        1.73089413
      113.41326       92.35014143        1.65406288
      113.51296       90.38328608        1.53913074
      113.61265       91.13284553        1.49129149
      113.71234       91.84701712        1.43004708
      113.81204       90.92714815        1.63003758
      113.91173       90.65410972        1.57714896
      114.01142       85.34820251        1.51460219
      114.11112       87.93960113        1.53674861
      114.21081       85.48505159        1.52597766
      114.31050       87.49594464        1.75087831
      114.41020       84.43747469        1.58920861
      114.50989       83.16195045        1.47641347
      114.60958       81.16990731        1.41143372
      114.70928       75.12906647        1.30938485
      114.80897       74.89676380        1.48277398
      114.90866       73.41979575        1.38462540
      115.00836       73.51303482        1.37903287
      115.10805       75.01021205        1.40066604
      115.20774       73.48309203        1.40723870
      115.30744       70.02077547        1.57705084
      115.40713       71.88538528        1.44741760
      115.50682       73.05581930        1.37761018
      115.60652       72.53041618        1.32289432
      115.70621       74.06731534        1.28486579
      115.80590       74.49009636        1.50319434
      115.90560       79.76458110        1.41011767
      116.00529       80.94610196        1.43643239
      116.10498       81.17760240        1.45352699
      116.20468       87.10872970        1.54058186
      116.30437       89.91737187        1.86602392
      116.40406       92.45224418        1.64812434
      116.50376       97.34173874        1.59839741
      116.60345       98.49399139        1.54345666
      116.70314      109.36829535        1.57769131
      116.80284      122.60502742        1.98572395
      116.90253      129.55741407        1.83665348
      117.00222      130.68886174        1.83013801
      117.10192      143.50256638        1.97002644
      117.20161      143.74390809        1.99570169
      117.30131      143.83028236        2.38882392
      117.40100      153.31982308        2.07416831
      117.50069      157.94702459        1.99979183
      117.60039      168.53823533        1.97766476
      117.70008      175.36342523        1.95479163
      117.79977      180.20679852        2.42865795
      117.89947      182.83527019        2.12684152
      117.99916      188.93822083        2.18829508
      118.09885      185.40651859        2.20811817
      118.19855      193.66544541        2.36438654
      118.29824      192.20785210        2.58208473
      118.39793      194.81191931        2.36037417
      118.49763      200.62177721        2.26075508
      118.59732      195.48568273        2.15420562
      118.69701      194.61225632        2.23903814
      118.79671      198.71589971        2.44334870
      118.89640      186.62439793        2.20673993
      118.99609      182.39358705        2.17892687
      119.09579      180.99084872        2.19572385
      119.19548      177.01098024        2.37232834
      119.29517      171.87522695        2.42821621
      119.39487      169.53619058        2.21675270
      119.49456      162.05524643        2.04184920
      119.59425      156.67541539        1.94939913
      119.69395      145.13497786        1.97864590
      119.79364      143.06951237        1.98524465
      119.89333      139.77340889        1.89887750
      119.99303      136.12351715        1.82938024
      120.09272      131.48161591        1.83859549
      120.19241      129.91567229        2.05416121
      120.29211      128.14023647        2.01914994
      120.39180      127.18617784        1.91910783
      120.49149      121.32102959        1.74286837
      120.59119      122.41103577        1.69929220
      120.69088      118.07492809        1.79633239
      120.79057      118.92422256        1.76413265
      120.89027      118.83633538        1.73132158
      120.98996      116.85389515        1.70350714
      121.08966      115.26617657        1.70446527
      121.18935      116.67412719        1.96575197
      121.28904      118.91859167        1.93441259
      121.38874      114.60574862        1.79551593
      121.48843      115.48544207        1.70242886
      121.58812      117.61725113        1.63872820
      121.68782      119.07902152        1.82677287
      121.78751      117.58814693        1.72971655
      121.88720      123.29894553        1.74892572
      121.98690      120.29367470        1.74024020
      122.08659      121.06525595        1.78082210
      122.18628      119.87373364        2.05558177
      122.28598      118.72241797        1.92366455
      122.38567      116.49289828        1.82483568
      122.48536      116.04549780        1.72282795
      122.58506      112.89093237        1.60919076
      122.68475      113.31652127        1.82696479
      122.78444      108.60118425        1.68383737
      122.88414      109.85104333        1.67919723
      122.98383      106.23195470        1.68492567
      123.08352      102.10512429        1.63751183
      123.18322      103.53424644        1.92327294
      123.28291       98.60617888        1.70555916
      123.38260       99.79307049        1.65643564
      123.48230       95.51806666        1.56168894
      123.58199       93.80843364        1.44645992
      123.68168       94.04180518        1.65262610
      123.78138       93.83202869        1.48933281
      123.88107       89.71451012        1.42241220
      123.98076       89.47092173        1.44674430
      124.08046       86.38423395        1.40643892
      124.18015       85.44560512        1.58316968
      124.27984       84.58477225        1.41121072
      124.37954       82.77574383        1.31726252
      124.47923       80.24003451        1.26601850
      124.57893       74.00292247        1.29504670
