        5.04651       56.91504465        2.57310028
        5.14621       59.30192633        2.53150862
        5.24590       52.89571575        2.35604894
        5.34559       55.54232498        2.21449077
        5.44529       52.30506586        2.33763574
        5.54498       48.04624736        1.88433198
        5.64467       50.49457681        1.91502703
        5.74437       48.13045172        1.68757797
        5.84406       51.25056941        1.76250488
        5.94375       50.32630397        1.74414209
        6.04345       51.59042652        1.71599023
        6.14314       47.02278388        1.49977512
        6.24283       52.03326163        1.63002355
        6.34253       49.46237534        1.51567477
        6.44222       49.82137892        1.60175243
        6.54191       47.74068191        1.48528148
        6.64161       48.27953780        1.41500970
        6.74130       45.96346488        1.38611569
        6.84099       48.79360216        1.41795366
        6.94069       47.36760502        1.41804607
        7.04038       47.60669134        1.31226931
        7.14007       49.62002430        1.33704768
        7.23977       46.60233499        1.27296317
        7.33946       47.97543338        1.31141440
        7.43915       45.34074567        1.25814359
        7.53885       48.92330524        1.28295304
        7.63854       47.78305961        1.21179513
        7.73823       45.34863353        1.22570173
        7.83793       46.57161500        1.20206521
        7.93762       45.92328746        1.24514006
        8.03732       46.58379259        1.12470228
        8.13701       48.16570061        1.13854045
        8.23670       47.08030389        1.14147879
        8.33640       47.44730855        1.14624876
        8.43609       47.94169694        1.20460367
        8.53578       47.20583207        1.11334481
        8.63548       48.51487023        1.11575478
        8.73517       46.86056433        1.07560414
        8.83486       46.74026102        1.07683400
        8.93456       45.95795764        1.06227089
        9.03425       46.21142876        1.03401339
        9.13394       48.12474154        1.05726004
        9.23364       44.11599857        1.02690355
        9.33333       47.15157658        1.08337705
        9.43302       45.10140890        1.05988019
        9.53272       47.76668828        1.05399508
        9.63241       46.65957636        1.07111140
        9.73210       47.74241337        1.08133834
        9.83180       45.50713242        1.09996711
        9.93149       46.41350899        1.10295086
       10.03118       44.45375430        1.03853114
       10.13088       47.05483651        1.04297511
       10.23057       47.26069536        1.09460184
       10.33026       45.44614106        1.10945168
       10.42996       45.80770864        1.09860890
       10.52965       46.66257464        1.07386530
       10.62934       47.06155335        1.08105269
       10.72904       49.10992919        1.12074193
       10.82873       46.57443829        1.08583034
       10.92842       46.51915245        1.10337329
       11.02812       47.77760253        1.06536682
       11.12781       49.61532583        1.12467818
       11.22750       50.04418621        1.14079891
       11.32720       47.88337438        1.14582614
       11.42689       49.98713494        1.13019221
       11.52658       51.98587543        1.13891029
       11.62628       54.33884670        1.17713131
       11.72597       57.23528867        1.23388203
       11.82567       58.51173306        1.28231489
       11.92536       62.21964323        1.23761495
       12.02505       70.50570012        1.32396907
       12.12475       73.85108093        1.35394176
       12.22444       82.11194362        1.51427689
       12.32413       93.96676854        1.64520596
       12.42383      104.34330683        1.64599043
       12.52352      122.63971677        1.77431780
       12.62321      139.68142319        1.94803736
       12.72291      164.69731433        2.05949591
       12.82260      192.47807240        2.42157189
       12.92229      214.57636840        2.32294209
       13.02199      243.51729456        2.45617425
       13.12168      267.55367227        2.61977577
       13.22137      298.69118282        2.85884118
       13.32107      324.50672215        3.07631487
       13.42076      347.44660410        3.06442202
       13.52045      368.71073952        3.19537619
       13.62015      364.55184912        3.07835101
       13.71984      350.01839440        3.14304961
       13.81953      323.90597985        3.07419937
       13.91923      278.84247984        2.67788745
       14.01892      218.19300111        2.30488190
       14.11861      169.26406965        2.11734246
       14.21831      132.06139807        1.87147797
       14.31800      105.99432740        1.76468921
       14.41769       82.73772129        1.50103043
       14.51739       73.88295648        1.38383828
       14.61708       62.39731047        1.27464224
       14.71677       54.78793930        1.21367236
       14.81647       51.68196680        1.23476385
       14.91616       50.22133756        1.11931061
       15.01585       49.31768243        1.12916211
       15.11555       47.00907348        1.11510466
       15.21524       46.61308694        1.14441983
       15.31493       47.41265892        1.18206004
       15.41463       46.49626361        1.13335140
       15.51432       47.86386300        1.11432269
       15.61402       47.34262008        1.13628079
       15.71371       47.87656446        1.13484294
       15.81340       45.68150279        1.15309874
       15.91310       44.29170352        1.10318654
       16.01279       47.59534771        1.09510273
       16.11248       48.71728971        1.13773197
       16.21218       46.99744898        1.14836711
       16.31187       48.35401150        1.16772676
       16.41156       49.11508068        1.15499738
       16.51126       47.01502814        1.14905716
       16.61095       49.74359771        1.13976046
       16.71064       48.92912237        1.16609604
       16.81034       51.23155773        1.19692489
       16.91003       52.12005763        1.17247934
       17.00972       52.39088898        1.12850487
       17.10942       57.23504337        1.24689239
       17.20911       61.88656058        1.30821880
       17.30880       65.45638780        1.35724853
       17.40850       70.47055949        1.40816011
       17.50819       71.11978215        1.37361994
       17.60788       73.02278067        1.43517543
       17.70758       72.79809224        1.43885738
       17.80727       74.20646259        1.47071759
       17.90696       73.31264038        1.36674464
       18.00666       65.87467204        1.31797187
       18.10635       61.71387188        1.24064686
       18.20604       59.14825585        1.33232422
       18.30574       55.34528329        1.22813919
       18.40543       56.85426072        1.21404030
       18.50512       55.76958370        1.24030660
       18.60482       51.45129037        1.17245792
       18.70451       50.01796335        1.22156550
       18.80420       50.79261276        1.15645852
       18.90390       49.57752677        1.13029697
       19.00359       47.28975466        1.07496719
       19.10328       47.62555113        1.14134711
       19.20298       46.27199447        1.15996218
       19.30267       45.03012230        1.09883723
       19.40237       45.26126255        1.08919442
       19.50206       46.90272376        1.13671138
       19.60175       45.58631809        1.10802865
       19.70145       44.78675251        1.15160404
       19.80114       44.15114604        1.08442499
       19.90083       44.41972968        1.05096966
       20.00053       45.38035839        1.08115826
       20.10022       46.64494593        1.10430894
       20.19991       47.67626301        1.19365298
       20.29961       49.49438374        1.15242961
       20.39930       48.42538458        1.17430788
       20.49899       49.89445337        1.17133944
       20.59869       52.31111288        1.22140408
       20.69838       53.23631897        1.27763671
       20.79807       53.51797566        1.22184119
       20.89777       56.40250952        1.22608417
       20.99746       56.42127950        1.23848187
       21.09715       56.13914723        1.30123772
       21.19685       58.62843035        1.32295907
       21.29654       57.28292894        1.27558398
       21.39623       56.90222679        1.27138775
       21.49593       56.33925237        1.24697639
       21.59562       54.13144346        1.25163512
       21.69531       50.40938447        1.25614644
       21.79501       48.68234091        1.12919879
       21.89470       46.80265325        1.08219921
       21.99439       44.67677210        1.10208172
       22.09409       45.81817369        1.11888147
       22.19378       43.32221637        1.15532210
       22.29347       45.63588577        1.10445158
       22.39317       46.49616650        1.14372767
       22.49286       45.35125933        1.12861013
       22.59255       47.26181320        1.16576341
       22.69225       48.24666848        1.24125979
       22.79194       50.70172781        1.14287657
       22.89163       51.81287625        1.13278721
       22.99133       58.86296111        1.24118866
       23.09102       64.61152366        1.35077777
       23.19072       67.97110789        1.38888278
       23.29041       69.27218232        1.38471829
       23.39010       69.04412899        1.39690847
       23.48980       70.36213182        1.41536380
       23.58949       63.85816775        1.36613199
       23.68918       62.70086310        1.42344008
       23.78888       56.15215202        1.20021894
       23.88857       50.95655996        1.15809482
       23.98826       50.49061673        1.17851870
       24.08796       47.15229936        1.11657072
       24.18765       44.65863665        1.16424533
       24.28734       44.61793601        1.10796879
       24.38704       45.88317425        1.14239805
       24.48673       41.14598699        1.07776997
       24.58642       46.08763932        1.17860304
       24.68612       41.96738025        1.12303686
       24.78581       45.91168596        1.08295668
       24.88550       42.90432097        1.04634973
       24.98520       43.74417224        1.09565527
       25.08489       45.70804450        1.14242152
       25.18458       44.27300702        1.14790513
       25.28428       44.21158370        1.10560476
       25.38397       49.05231857        1.15910008
       25.48366       49.72574447        1.17403877
       25.58336       52.43384986        1.25669617
       25.68305       61.85064336        1.33906622
       25.78274       71.94247226        1.36343324
       25.88244       84.58926691        1.51619664
       25.98213      104.24063750        1.69759629
       26.08182      126.14933171        1.91725963
       26.18152      153.42933728        2.16672542
       26.28121      177.72164627        2.20672640
       26.38090      194.82773224        2.33069752
       26.48060      197.72318176        2.41287482
       26.58029      187.00518039        2.44753665
       26.67998      169.43920434        2.19987695
       26.77968      147.56563507        2.02805806
       26.87937      117.18558760        1.78040653
       26.97907       91.07907794        1.55567000
       27.07876       82.93981696        1.59832636
       27.17845       76.51536848        1.46683284
       27.27815       79.30909040        1.45851129
       27.37784       81.56762614        1.53684801
       27.47753       85.16095285        1.54731424
       27.57723       86.37618077        1.63248454
       27.67692       81.66701359        1.54915743
       27.77661       77.37269970        1.43906274
       27.87631       71.98456503        1.36484029
       27.97600       59.66688156        1.27015356
       28.07569       55.73872341        1.29919165
       28.17539       51.41570403        1.19440275
       28.27508       50.73345312        1.18696273
       28.37477       48.79639016        1.19170999
       28.47447       49.48141438        1.19070201
       28.57416       49.34524199        1.28551365
       28.67385       49.83730012        1.14940325
       28.77355       53.97313788        1.17472525
       28.87324       54.90577475        1.21642053
       28.97293       54.55022699        1.21528604
       29.07263       59.03343280        1.37830076
       29.17232       56.81804423        1.23389678
       29.27201       56.43217061        1.25240720
       29.37171       53.00434405        1.24847811
       29.47140       51.53691039        1.21681193
       29.57109       49.65861646        1.26649986
       29.67079       47.74792748        1.13053652
       29.77048       47.15715297        1.12610446
       29.87017       45.73726017        1.08719981
       29.96987       49.05991461        1.18077909
       30.06956       47.46485966        1.19815507
       30.16925       45.99616921        1.11048820
       30.26895       47.78264402        1.13624351
       30.36864       47.21531138        1.14791247
       30.46833       48.08955791        1.17026442
       30.56803       52.77339227        1.29519923
       30.66772       56.72976511        1.24980516
       30.76742       57.00447213        1.22774597
       30.86711       59.67428214        1.28130585
       30.96680       61.56973669        1.30909750
       31.06650       60.49391974        1.36056158
       31.16619       65.69005388        1.33331245
       31.26588       60.23505015        1.26884746
       31.36558       57.40358046        1.25476802
       31.46527       55.49198068        1.28359336
       31.56496       59.29231344        1.34830235
       31.66466       63.43257741        1.30437323
       31.76435       70.46381840        1.37363743
       31.86404       78.37736577        1.42999095
       31.96374       87.05021963        1.54237946
       32.06343       84.49253290        1.57232926
       32.16312       87.31681264        1.50230582
       32.26282       83.55575769        1.50536607
       32.36251       76.96104644        1.50228115
       32.46220       73.86263689        1.49804388
       32.56190       68.71449115        1.47031337
       32.66159       67.85882554        1.38754371
       32.76128       66.49135260        1.34262333
       32.86098       62.93874921        1.32571825
       32.96067       63.14591850        1.34454650
       33.06036       59.94051221        1.33372994
       33.16006       61.15813274        1.26879880
       33.25975       57.95179537        1.27507228
       33.35944       57.06230408        1.27206614
       33.45914       55.60114232        1.30336840
       33.55883       56.97178839        1.32248555
       33.65852       61.81484032        1.28475468
       33.75822       65.02595937        1.31551525
       33.85791       74.30433426        1.41232563
       33.95760       81.90245298        1.52682107
       34.05730       94.23136728        1.62228043
       34.15699      107.00347541        1.70168961
       34.25668      120.32052137        1.79852390
       34.35638      148.60188488        2.05145860
       34.45607      185.40818795        2.41463689
       34.55577      227.14470062        2.54783311
       34.65546      292.50443019        2.77470511
       34.75515      361.90796498        3.14677623
       34.85485      422.42760786        3.37567988
       34.95454      446.31098159        3.57956336
       35.05423      428.89601094        3.62813980
       35.15393      390.21067210        3.24932859
       35.25362      323.58147624        3.00370372
       35.35331      254.52477034        2.73182654
       35.45301      191.66090886        2.47192034
       35.55270      144.90233225        2.09156331
       35.65239      112.65738381        1.78035102
       35.75209       86.98316910        1.55205254
       35.85178       78.01027113        1.46757200
       35.95147       72.31378967        1.44603743
       36.05117       70.81758092        1.40152736
       36.15086       66.21883385        1.30295121
       36.25055       60.69615633        1.30304946
       36.35025       60.41350626        1.32547539
       36.44994       57.10812224        1.31432376
       36.54963       58.19253571        1.27367263
       36.64933       56.41612040        1.23529340
       36.74902       57.59902413        1.26127344
       36.84871       54.97146436        1.22316729
       36.94841       54.21673794        1.31363557
       37.04810       52.19327401        1.13639432
       37.14779       49.85720582        1.13335379
       37.24749       49.87124008        1.16504517
       37.34718       49.10358225        1.18550164
       37.44687       46.58658271        1.24028586
       37.54657       46.48961114        1.13111676
       37.64626       46.83416246        1.13096120
       37.74595       45.73058895        1.10004083
       37.84565       47.64040205        1.18807837
       37.94534       46.97537622        1.20184511
       38.04503       45.40444595        1.06788207
       38.14473       47.56770866        1.10382086
       38.24442       48.94919166        1.14025511
       38.34412       48.77464333        1.18998613
       38.44381       49.14769560        1.29165075
       38.54350       47.23389919        1.12867640
       38.64320       49.56657993        1.15280102
       38.74289       49.72646978        1.16976701
       38.84258       51.82788619        1.19720442
       38.94228       53.67677074        1.27799343
       39.04197       58.39752762        1.20217590
       39.14166       64.00782207        1.30950105
       39.24136       68.26546624        1.34888481
       39.34105       69.69175142        1.41048240
       39.44074       73.79627349        1.58338375
       39.54044       72.96092849        1.40767929
       39.64013       70.41496854        1.37856182
       39.73982       64.93614556        1.32896616
       39.83952       63.89195505        1.30929800
       39.93921       59.82389449        1.34317116
       40.03890       58.06834142        1.21124724
       40.13860       57.32936162        1.20193168
       40.23829       57.62362016        1.24765665
       40.33798       55.55620839        1.26316753
       40.43768       56.36627604        1.33125562
       40.53737       58.18580889        1.25544115
       40.63706       54.62917389        1.24185192
       40.73676       57.47086394        1.27184578
       40.83645       59.77492329        1.30802342
       40.93614       62.72718746        1.36252260
       41.03584       69.50339596        1.35001143
       41.13553       78.07710383        1.43278445
       41.23522       93.53488092        1.60687693
       41.33492      115.38723586        1.86914428
       41.43461      141.58845374        2.13797672
       41.53430      164.13730868        2.15642793
       41.63400      190.01748318        2.37184073
       41.73369      208.26478254        2.42956862
       41.83338      216.23348655        2.54207174
       41.93308      217.40843306        2.52628802
       42.03277      226.39248179        2.35677987
       42.13247      247.48265185        2.59062858
       42.23216      293.73925249        2.82915829
       42.33185      361.43334414        3.37146449
       42.43155      411.56486353        3.54461656
       42.53124      473.15313477        3.68110506
       42.63093      515.96804186        3.85178896
       42.73063      527.32657672        3.91085816
       42.83032      525.24964280        3.97347115
       42.93001      499.14721200        3.72851345
       43.02971      425.42149178        3.24986092
       43.12940      347.02473060        2.99346281
       43.22909      270.09131340        2.77398605
       43.32879      205.09340713        2.54459884
       43.42848      157.57692324        2.18014648
       43.52817      114.32979424        1.77538456
       43.62787       91.90806955        1.58594626
       43.72756       70.38795373        1.41999174
       43.82725       66.98092412        1.44639010
       43.92695       62.20115393        1.26380190
       44.02664       56.79175415        1.20163069
       44.12633       56.60826137        1.24441300
       44.22603       55.08166392        1.27761371
       44.32572       55.55227298        1.35231886
       44.42541       55.38965164        1.28923084
       44.52511       56.14385608        1.26309988
       44.62480       54.17168546        1.25816843
       44.72449       57.45778395        1.25584299
       44.82419       60.33902893        1.44421320
       44.92388       65.31926634        1.25337666
       45.02357       76.14299595        1.36471855
       45.12327       89.85461795        1.52747852
       45.22296      109.27856051        1.72956643
       45.32265      129.84226758        2.08622350
       45.42235      147.18406746        2.02275638
       45.52204      173.21629690        2.17308348
       45.62174      205.42933339        2.41092290
       45.72143      215.58631537        2.46950841
       45.82112      228.05444615        2.78102369
       45.92082      229.34641332        2.36763108
       46.02051      227.12495356        2.40635642
       46.12020      226.88928774        2.41328992
       46.21990      211.36678647        2.44698369
       46.31959      196.63317326        2.54819258
       46.41928      184.70982552        2.28107013
       46.51898      159.04089267        2.12751195
       46.61867      131.07980680        1.92067095
       46.71836      105.68543125        1.76793277
       46.81806       85.76532460        1.65060780
       46.91775       74.83601194        1.34363710
       47.01744       64.29590386        1.27471986
       47.11714       65.24706294        1.31348429
       47.21683       70.72213014        1.40795687
       47.31652       79.54432852        1.62936596
       47.41622       87.30714397        1.60886518
       47.51591      104.19272077        1.76143615
       47.61560      116.32990107        1.84585636
       47.71530      134.78938978        2.00900610
       47.81499      145.10790589        2.13707283
       47.91468      159.38283113        1.95974760
       48.01438      165.79413906        1.99971820
       48.11407      167.95257055        2.08796680
       48.21376      171.08392530        2.20046535
       48.31346      163.38231537        2.22658940
       48.41315      155.85726669        2.02694707
       48.51284      145.95004034        2.02662298
       48.61254      128.31227142        1.89195306
       48.71223      109.86311556        1.78182588
       48.81192       92.50237582        1.63051677
       48.91162       79.33886386        1.35330907
       49.01131       63.79861300        1.25556782
       49.11100       59.88392384        1.26016459
       49.21070       54.63746782        1.26353508
       49.31039       52.84750380        1.27886021
       49.41009       51.47806677        1.19231438
       49.50978       51.46350137        1.21681399
       49.60947       49.70430823        1.20451497
       49.70917       46.66388359        1.21023959
       49.80886       48.40681371        1.19973191
       49.90855       50.32488713        1.11439581
       50.00825       48.97203782        1.12248088
       50.10794       49.91284348        1.15904011
       50.20763       50.48442306        1.21786697
       50.30733       50.51669906        1.27611022
       50.40702       52.95943901        1.22539018
       50.50671       54.14099186        1.24267453
       50.60641       55.63804952        1.26158893
       50.70610       57.12761175        1.31545962
       50.80579       54.74909440        1.27068342
       50.90549       57.89432783        1.17820675
       51.00518       53.89645573        1.14671613
       51.10487       55.13039936        1.19889533
       51.20457       56.61852887        1.29351062
       51.30426       57.63811155        1.29836306
       51.40395       58.38626528        1.25278915
       51.50365       56.94599490        1.25130803
       51.60334       59.46173953        1.30401698
       51.70303       59.65566207        1.38705867
       51.80273       61.96944238        1.29685205
       51.90242       60.73617500        1.19949213
       52.00211       61.66606319        1.21439489
       52.10181       62.78634736        1.26420944
       52.20150       63.61907987        1.40148276
       52.30119       64.37817179        1.35811358
       52.40089       62.78975842        1.32017846
       52.50058       60.78272207        1.32335285
       52.60027       60.06474062        1.33344800
       52.69997       59.72996057        1.45724414
       52.79966       59.92148076        1.22712136
       52.89935       67.84595754        1.26023877
       52.99905       74.95079984        1.34649981
       53.09874       87.40451091        1.50144750
       53.19844       97.19187600        1.81343298
       53.29813      110.38536878        1.71795404
       53.39782      122.53194618        1.87284969
       53.49752      134.78215438        1.97364376
       53.59721      143.22478653        2.03325971
       53.69690      144.41834097        2.24015667
       53.79660      150.73549594        1.91746618
       53.89629      150.29470285        1.89398380
       53.99598      144.38648537        1.90148258
       54.09568      134.81730059        1.91832375
       54.19537      126.07790630        2.02286151
       54.29506      116.96043418        1.78960231
       54.39476      107.13859351        1.72571001
       54.49445       95.61823105        1.63094305
       54.59414       91.01515003        1.61526582
       54.69384       88.38476972        1.69797941
       54.79353       87.95845010        1.45256867
       54.89322       80.61049359        1.38523543
       54.99292       80.47764338        1.42465057
       55.09261       77.24143287        1.45133608
       55.19230       68.29010318        1.46506446
       55.29200       66.49135801        1.34547443
       55.39169       61.27639913        1.33253048
       55.49138       59.16420287        1.30443287
       55.59108       56.96084756        1.32087180
       55.69077       54.43098928        1.32501103
       55.79046       54.94657479        1.16392671
       55.89016       54.43646074        1.15572266
       55.98985       56.75142856        1.18770199
       56.08954       59.82432071        1.25975031
       56.18924       64.40209473        1.41079166
       56.28893       72.67817568        1.37198299
       56.38862       82.57056677        1.51305813
       56.48832       96.55529434        1.66494325
       56.58801      104.04890622        1.77857073
       56.68770      114.05610117        1.92242104
       56.78740      115.21115667        1.65357550
       56.88709      114.38070296        1.66400621
       56.98679      103.32103943        1.58240839
       57.08648       92.55966855        1.58725687
       57.18617       83.96524570        1.56504329
       57.28587       73.71665470        1.36976986
       57.38556       64.73290291        1.36608952
       57.48525       61.25656454        1.35435038
       57.58495       55.31023681        1.31620455
       57.68464       53.25340099        1.30269389
       57.78433       50.63209005        1.11110150
       57.88403       50.49566880        1.12253441
       57.98372       54.20464961        1.18170396
       58.08341       52.61514006        1.25875269
       58.18311       52.62754070        1.28777377
       58.28280       52.08920836        1.20669743
       58.38249       54.03005889        1.28424859
       58.48219       52.60381741        1.29448286
       58.58188       51.61400385        1.29622426
       58.68157       52.74505244        1.28408244
       58.78127       53.87528699        1.13520571
       58.88096       56.94913326        1.15004454
       58.98065       52.25421528        1.14337692
       59.08035       56.21266342        1.26558433
       59.18004       57.55495346        1.29911160
       59.27973       60.95316103        1.26150221
       59.37943       64.22789464        1.33777188
       59.47912       67.68164045        1.42970674
       59.57881       71.18462351        1.53615928
       59.67851       75.84446388        1.47849249
       59.77820       84.36087759        1.43377379
       59.87789       93.84256776        1.50720812
       59.97759      102.26462790        1.64624025
       60.07728      106.71280840        1.82127969
       60.17697      106.75514641        1.73529911
       60.27667      110.43322011        1.71614435
       60.37636      111.61514969        1.75884321
       60.47605      102.60015743        1.75869770
       60.57575       98.42061388        1.88756396
       60.67544       95.82179353        1.60004780
       60.77514       85.84364431        1.43935288
       60.87483       75.64146528        1.32452539
       60.97452       73.71133050        1.37743845
       61.07422       70.80186885        1.51642430
       61.17391       66.58612097        1.27369151
       61.27360       62.94663725        1.28220509
       61.37330       68.05242390        1.38288554
       61.47299       69.06336123        1.45439586
       61.57268       67.48135645        1.63476311
       61.67238       69.15349229        1.34885397
       61.77207       70.50663938        1.32653805
       61.87176       72.44756977        1.32978169
       61.97146       71.64048168        1.37284704
       62.07115       71.28274063        1.55093521
       62.17084       69.98954859        1.34636824
       62.27054       68.04681799        1.38412362
       62.37023       65.24716545        1.40920614
       62.46992       69.42711460        1.50368781
       62.56962       70.93439318        1.70719095
       62.66931       72.28814365        1.38842614
       62.76900       77.46940143        1.40116455
       62.86870       84.34660390        1.43042297
       62.96839       91.94525122        1.54143592
       63.06808      101.45996977        1.80246168
       63.16778      104.28377841        1.62218154
       63.26747      111.74633580        1.73804582
       63.36716      112.33173776        1.80834473
       63.46686      115.45107226        1.88836699
       63.56655      124.02881306        2.07985459
       63.66624      127.69497898        1.79380725
       63.76594      142.31572617        1.84023662
       63.86563      155.99327069        1.92137367
       63.96532      167.45260292        2.08372186
       64.06502      173.51260975        2.27273999
       64.16471      174.74425885        2.10981440
       64.26440      160.87712559        2.10659976
       64.36410      153.16729406        2.09679042
       64.46379      137.05533316        2.09680506
       64.56349      126.41829054        2.04918706
       64.66318      106.92625060        1.64867043
       64.76287       85.86269668        1.45832235
       64.86257       73.20296492        1.34403396
       64.96226       66.72292928        1.34385483
       65.06195       61.20620562        1.39153336
       65.16165       55.54083531        1.19554859
       65.26134       52.29076722        1.18706833
       65.36103       53.11005385        1.24838355
       65.46073       54.09105186        1.30129885
       65.56042       55.27295824        1.37395255
       65.66011       55.46181331        1.20008156
       65.75981       56.32914445        1.19736555
       65.85950       61.35129110        1.24184225
       65.95919       62.61634235        1.31332878
       66.05889       65.39122665        1.38832965
       66.15858       67.76614025        1.34401903
       66.25827       76.14517944        1.47372279
       66.35797       82.24081464        1.59565749
       66.45766       93.72448194        1.81040632
       66.55735      109.21551030        1.95451153
       66.65705      118.56063201        1.80661249
       66.75674      136.43756246        1.88932713
       66.85643      152.18072202        1.97337905
       66.95613      161.90725861        2.11681072
       67.05582      165.89510543        2.15895953
       67.15551      168.86559401        2.07302465
       67.25521      166.01879390        2.15744228
       67.35490      151.59416879        2.16958790
       67.45459      139.62063621        2.19547388
       67.55429      123.38225967        1.97676648
       67.65398      107.62488103        1.65440269
       67.75367       91.52654375        1.51262987
       67.85337       80.78633817        1.43822044
       67.95306       78.94134180        1.52020567
       68.05275       77.73620489        1.42837892
       68.15245       81.61260515        1.45109023
       68.25214       88.07283450        1.60019383
       68.35184       92.88374596        1.71275298
       68.45153      102.00683153        1.97637882
       68.55122      104.07271120        1.71969549
       68.65092      117.26963168        1.70208863
       68.75061      119.42127320        1.73533769
       68.85030      128.43316979        1.83478551
       68.95000      124.04923698        2.04409905
       69.04969      125.86618420        1.73906948
       69.14938      114.79018528        1.70729844
       69.24908      107.16997369        1.76150451
       69.34877       97.93453197        1.74127373
       69.44846       88.89071068        1.92382888
       69.54816       79.98680063        1.42256177
       69.64785       67.62427161        1.28916321
       69.74754       61.20900698        1.23861864
       69.84724       56.41898838        1.22000881
       69.94693       51.30563818        1.31276250
       70.04662       48.54545494        1.05000565
       70.14632       49.40930373        1.10156940
       70.24601       47.81986176        1.16029502
       70.34570       46.46292647        1.21021152
       70.44540       46.90482432        1.43270222
       70.54509       48.22164658        1.13711014
       70.64478       47.50740366        1.12702395
       70.74448       49.97288639        1.17432172
       70.84417       49.52079068        1.21303046
       70.94386       50.59735235        1.34601441
       71.04356       50.90407396        1.11720625
       71.14325       50.47400092        1.15604268
       71.24294       51.53157380        1.22906589
       71.34264       50.34235691        1.28805307
       71.44233       56.99239506        1.52967553
       71.54202       54.65426369        1.21943394
       71.64172       54.42023800        1.18364856
       71.74141       51.86546012        1.13446040
       71.84110       51.82214267        1.17385277
       71.94080       54.02555115        1.30614500
       72.04049       51.33141965        1.07750305
       72.14019       49.62712453        1.10379451
       72.23988       50.59403906        1.16614887
       72.33957       52.23451705        1.32362152
       72.43927       49.17552313        1.41358219
       72.53896       52.91028150        1.17579363
       72.63865       54.07559762        1.16191980
       72.73835       54.42759585        1.14007205
       72.83804       56.51527958        1.22683558
       72.93773       57.11189033        1.31005675
       73.03743       60.52638338        1.17078230
       73.13712       63.53092019        1.26508548
       73.23681       63.13969840        1.32496966
       73.33651       64.62411338        1.47504910
       73.43620       62.16675459        1.56688123
       73.53589       62.48358858        1.26721745
       73.63559       63.27918358        1.25526930
       73.73528       64.45582639        1.26118209
       73.83497       66.04257072        1.35349379
       73.93467       65.00906401        1.41398566
       74.03436       63.74085226        1.23905156
       74.13405       64.06845061        1.29506061
       74.23375       64.10838924        1.34941389
       74.33344       65.21612062        1.49835706
       74.43313       67.40182895        1.58074837
       74.53283       65.25756903        1.32142957
       74.63252       69.63850113        1.35537911
       74.73221       70.95825601        1.36152841
       74.83191       74.97904555        1.48485370
       74.93160       80.27103962        1.55393619
       75.03129       80.30054467        1.38171265
       75.13099       85.21818073        1.47454670
       75.23068       88.45737047        1.56711378
       75.33037       96.24059695        1.79715437
       75.43007       99.07438774        1.84979758
       75.52976      105.44608927        1.65779791
       75.62945      117.05198735        1.74566330
       75.72915      126.05063669        1.80475108
       75.82884      129.02808389        1.96599681
       75.92854      133.20677284        1.87539833
       76.02823      139.54295123        1.80052001
       76.12792      147.45293026        1.93497947
       76.22762      148.58498958        2.04938280
       76.32731      151.17806780        2.33485489
       76.42700      147.13805564        2.17373515
       76.52670      150.43805646        2.02799892
       76.62639      142.43693542        1.94791535
       76.72608      136.67159303        1.87614682
       76.82578      129.07746876        2.10043243
       76.92547      124.11208410        1.64947016
       77.02516      126.49132058        1.72606190
       77.12486      122.10503392        1.78119483
       77.22455      126.38874131        1.92980279
       77.32424      127.43629000        2.38064803
       77.42394      133.22224439        1.94390310
       77.52363      132.76596156        1.87516289
       77.62332      134.92572896        1.88179162
       77.72302      139.04281613        1.91481996
       77.82271      141.45366258        2.26513165
       77.92240      142.71557997        1.74228184
       78.02210      142.31945507        1.87735308
       78.12179      141.73371461        2.00096511
       78.22148      135.97429392        2.07215007
       78.32118      138.49748291        2.42692430
       78.42087      127.95298276        1.83528345
       78.52056      125.02392024        1.87333577
       78.62026      119.34779401        1.81569381
       78.71995      106.49861680        1.72024569
       78.81964      105.43990108        1.91194187
       78.91934       96.31452889        1.41555435
       79.01903       85.03966203        1.45777999
       79.11872       80.95749049        1.48011193
       79.21842       73.06541553        1.49962607
       79.31811       67.99831744        1.62930950
       79.41780       67.45673462        1.31640932
       79.51750       66.52659034        1.32831863
       79.61719       64.45744363        1.31125061
       79.71689       65.38646893        1.37120891
       79.81658       66.34151824        1.46417013
       79.91627       65.40399788        1.23226395
       80.01597       65.31390928        1.26571133
       80.11566       63.82589734        1.30790043
       80.21535       66.37878013        1.42589746
       80.31505       62.95003884        1.65049152
       80.41474       65.20248443        1.29085632
       80.51443       66.69559563        1.29990144
       80.61413       71.73321226        1.39304569
       80.71382       79.81942737        1.52052078
       80.81351       83.32397590        1.74585728
       80.91321       90.48122525        1.34185496
       81.01290      110.33061561        1.60049253
       81.11259      128.92107699        1.86821193
       81.21229      143.14052835        2.12982890
       81.31198      161.89779852        2.52779585
       81.41167      177.71882424        2.07416294
       81.51137      203.04238002        2.28196998
       81.61106      214.21070936        2.44766886
       81.71075      223.76616386        2.58939140
       81.81045      239.16499636        2.83702453
       81.91014      256.80621248        2.26122370
       82.00983      270.94547833        2.48312914
       82.10953      278.41908535        2.81611557
       82.20922      283.10126136        3.15827517
       82.30891      287.02868384        3.33476988
       82.40861      292.03443526        2.73577196
       82.50830      286.37733859        2.70161163
       82.60799      285.71853093        2.90679763
       82.70769      286.13767353        3.16575252
       82.80738      282.41887920        3.00467494
       82.90707      277.53301318        2.41842877
       83.00677      271.40567846        2.54806173
       83.10646      267.60206081        2.97721078
       83.20615      251.46037024        3.21120342
       83.30585      239.66968269        2.96934032
       83.40554      222.48169694        2.37779493
       83.50524      209.82753848        2.25296527
       83.60493      189.25625003        2.35625156
       83.70462      177.45686757        2.57240818
       83.80432      166.34085165        2.17620934
       83.90401      139.31350894        1.66958414
       84.00370      118.85731366        1.60774694
       84.10340      100.49464811        1.76578082
       84.20309       91.09963876        2.04058790
       84.30278       84.85408512        1.60143390
       84.40248       78.27640781        1.35725181
       84.50217       73.15167536        1.28699901
       84.60186       68.80391005        1.41116181
       84.70156       66.95684991        1.82155765
       84.80125       64.12796194        1.24099792
       84.90094       66.03242805        1.13131926
       85.00064       63.41719544        1.14217635
       85.10033       62.99186694        1.34717670
       85.20002       63.48035543        2.31952567
       85.29972       66.86729237        1.25593084
       85.39941       66.67125190        1.27859232
       85.49910       66.53845813        1.24215304
       85.59880       66.02060355        1.39128522
       85.69849       69.21573145        2.55785515
       85.79818       62.55393146        1.14616718
       85.89788       63.35473233        1.12595182
       85.99757       64.29985018        1.16555450
       86.09726       62.43808667        1.31862623
       86.19696       65.31873875        2.59064849
       86.29665       62.98953515        1.20381229
       86.39634       61.09900492        1.20610540
       86.49604       60.47576603        1.18176540
       86.59573       58.91612426        1.24274426
       86.69542       55.03320996        2.51090155
       86.79512       56.01307120        1.05157263
       86.89481       54.64492333        1.02396497
       86.99451       52.88562774        1.04409365
       87.09420       53.30457475        1.16906862
       87.19389       48.25491700        2.63436532
       87.29359       51.16328893        1.09945309
       87.39328       48.85609554        1.08880441
       87.49297       48.67769496        1.05504263
       87.59267       49.98337480        1.09017180
       87.69236       50.55197542        3.28068144
       87.79205       48.10222281        0.99681636
       87.89175       48.59601602        0.99387067
       87.99144       49.21948900        1.04227216
       88.09113       49.94353462        1.11595709
       88.19083       42.73086638        5.46092355
       88.29052       50.61424869        1.13053133
       88.39021       48.41531161        1.11298457
       88.48991       47.85130981        1.06188943
       88.58960       47.30215751        1.02241052
       88.68929       46.63168550        7.86375648
       88.78899       49.01058933        1.00458999
       88.88868       50.42426182        0.99677013
       88.98837       49.81239259        1.03040165
       89.08807       49.13852063        1.04822577
       89.18776       60.56385247        9.47252824
       89.28745       51.14106831        1.08656966
       89.38715       52.64455010        1.11380830
       89.48684       55.28681411        1.11709844
       89.58653       56.40223506        1.10542998
       89.68623       48.67543352        8.32279663
       89.78592       57.80491606        1.08744819
       89.88561       59.12764647        1.07827630
       89.98531       64.44644407        1.15452658
       90.08500       66.27812089        1.21436800
       90.18469       71.24334644       10.50230292
       90.28439       75.38940176        1.32314660
       90.38408       79.92463563        1.38542239
       90.48377       80.96413708        1.36823568
       90.58347       90.71622267        1.42598154
       90.68316       88.64037411       10.97903287
       90.78286       89.05556420        1.35234782
       90.88255       91.10047410        1.33099200
       90.98224       99.07756050        1.43650943
       91.08194       99.21213855        1.48465243
       91.18163       82.31256001       10.78460970
       91.28132       99.36245413        1.52975907
       91.38102       98.21168235        1.56117368
       91.48071       95.15910440        1.49885244
       91.58040       91.02275995        1.41752199
       91.68010      103.98146829       11.46722795
       91.77979       86.88252433        1.32927315
       91.87948       86.45887782        1.30553632
       91.97918       81.28577883        1.31425948
       92.07887       80.25420090        1.36028018
       92.17856       76.62488254       10.10488463
       92.27826       78.57020046        1.38999387
       92.37795       76.31100199        1.40224947
       92.47764       73.82381573        1.30916890
       92.57734       77.62088695        1.30245422
       92.67703       74.92159125        8.30546933
       92.77672       79.27768595        1.26870143
       92.87642       82.04544550        1.26613386
       92.97611       86.41261174        1.35703398
       93.07580       87.88861474        1.56205837
       93.17550       90.32573875        2.97798720
       93.27519       92.68674185        1.47881208
       93.37488       90.53084447        1.42058559
       93.47458       97.28297300        1.48915303
       93.57427       95.44326067        1.70517954
       93.67396       97.06424930        2.32402358
       93.77366       96.22096974        1.43338157
       93.87335       97.05853737        1.37514627
       93.97304       95.60155691        1.42221025
       94.07274       89.06743382        1.78182687
       94.17243       94.12852231        2.09043698
       94.27212       89.32241810        1.51646520
       94.37182       88.28778392        1.46930727
       94.47151       90.33099388        1.42341337
       94.57121       88.73939466        1.86184303
       94.67090       83.87082982        1.83069852
       94.77059       83.18744187        1.41728999
       94.87029       80.61944004        1.26863550
       94.96998       75.18033315        1.24038102
       95.06967       69.72036781        1.37673109
       95.16937       69.80725713        1.88579354
       95.26906       65.43003040        1.41019430
       95.36875       63.38046505        1.25931745
       95.46845       61.14920443        1.18867364
       95.56814       61.12465220        1.36752397
       95.66783       59.37070405        1.51405488
       95.76753       54.37828027        1.19719244
       95.86722       55.02017405        1.02436976
       95.96691       55.02583275        1.06258483
       96.06661       53.52196612        1.34239251
       96.16630       52.67650286        1.42013087
       96.26599       50.02353333        1.24272295
       96.36569       49.25637465        1.10645633
       96.46538       49.26905336        1.06796608
       96.56507       48.10699430        1.30245800
       96.66477       48.47989616        1.27407833
       96.76446       46.51439035        1.11514410
       96.86415       49.06413520        0.99214164
       96.96385       47.60689213        1.00934314
       97.06354       53.01210460        1.44051103
       97.16323       48.56453257        1.31810618
       97.26293       49.30914937        1.24785053
       97.36262       51.73127881        1.18369110
       97.46231       48.82086187        1.05779011
       97.56201       47.50630699        1.32746255
       97.66170       48.84579638        1.20905907
       97.76139       53.18188980        1.14630812
       97.86109       54.82206113        1.05247138
       97.96078       53.68555855        1.06421327
       98.06047       52.97140137        1.46827058
       98.16017       55.95241333        1.34160296
       98.25986       56.45071307        1.28718559
       98.35956       58.44286705        1.23656222
       98.45925       59.99440572        1.16948677
       98.55894       60.90071507        1.53707327
       98.65864       63.26811986        1.34432891
       98.75833       69.10453708        1.31302199
       98.85802       69.02176116        1.22525153
       98.95772       71.49809925        1.23882115
       99.05741       74.85027695        1.75984855
       99.15710       71.78798727        1.48202176
       99.25680       77.62546666        1.49333699
       99.35649       77.73703809        1.42331518
       99.45618       78.00954237        1.32873529
       99.55588       84.51565679        1.84841051
       99.65557       85.72018567        1.53580932
       99.75526       86.92204796        1.44958120
       99.85496       86.55997931        1.37678477
       99.95465       85.45777795        1.34109896
      100.05434       87.97434521        1.93859920
      100.15404       84.94071011        1.60429814
      100.25373       85.32153850        1.58865568
      100.35342       85.06270174        1.58003002
      100.45312       87.06414825        1.45874542
      100.55281       82.32589781        1.86275528
      100.65250       82.68270703        1.52081738
      100.75220       81.37902698        1.39749280
      100.85189       79.23810973        1.31752694
      100.95158       77.45770394        1.26775778
      101.05128       82.70921081        1.86805368
      101.15097       77.31705481        1.49244720
      101.25066       78.18716055        1.48287438
      101.35036       80.09259585        1.51394658
      101.45005       73.89145239        1.36713907
      101.54974       74.06061181        1.70477588
      101.64944       73.94867875        1.38982779
      101.74913       74.16593202        1.31145020
      101.84882       77.08068374        1.30156880
      101.94852       76.29720149        1.36400508
      102.04821       79.49891311        1.67720750
      102.14791       79.77202996        1.51415762
      102.24760       78.11771630        1.48563503
      102.34729       78.10684127        1.47946849
      102.44699       78.33095858        1.50736077
      102.54668       82.18980372        1.62041524
      102.64637       79.58535472        1.42398441
      102.74607       85.11969370        1.40279092
      102.84576       82.21002491        1.35229038
      102.94545       85.29577663        1.56900071
      103.04515       85.23127307        1.66035314
      103.14484       83.29100121        1.53341352
      103.24453       83.44500442        1.51115943
      103.34423       82.30147359        1.48856090
      103.44392       86.60389645        1.65431241
      103.54361       83.65580687        1.57932347
      103.64331       86.32865195        1.46052753
      103.74300       86.93261667        1.39804119
      103.84269       86.94055702        1.37390343
      103.94239       83.55473157        1.61838572
      104.04208       85.88100062        1.58746196
      104.14177       85.02120710        1.53666170
      104.24147       83.70847665        1.52390670
      104.34116       83.06446376        1.52742329
      104.44085       83.95725416        1.74413473
      104.54055       79.96431924        1.54089869
      104.64024       78.60213479        1.43597751
      104.73993       76.29316596        1.34991526
      104.83963       72.66420966        1.26908767
      104.93932       69.96049731        1.50947122
      105.03901       71.56657386        1.43861031
      105.13871       71.13825705        1.38103504
      105.23840       69.82094275        1.36733950
      105.33809       71.64277534        1.39332904
      105.43779       67.70672955        1.57581352
      105.53748       68.56485571        1.42214446
      105.63717       67.38928100        1.29228544
      105.73687       64.75464879        1.20545537
      105.83656       63.64922295        1.16450856
      105.93626       59.73297399        1.42940520
      106.03595       57.90634706        1.27546457
      106.13564       60.60684424        1.26129534
      106.23534       56.99979022        1.23809157
      106.33503       58.43557889        1.26631617
      106.43472       56.57431928        1.47294345
      106.53442       55.30937200        1.26671296
      106.63411       54.03844747        1.13733529
      106.73380       51.84801400        1.06170899
      106.83350       55.10013102        1.07828291
      106.93319       54.90800467        1.39534870
      107.03288       57.39909075        1.26452978
      107.13258       56.86208200        1.22162329
      107.23227       58.69311199        1.25923023
      107.33196       55.04020302        1.21591178
      107.43166       56.72401822        1.48323740
      107.53135       59.44764434        1.31022429
      107.63104       59.24063890        1.19095220
      107.73074       58.60878914        1.13647740
      107.83043       62.26105317        1.15669472
      107.93012       62.18215159        1.52917998
      108.02982       64.38349809        1.36201968
      108.12951       61.59888534        1.26678166
      108.22920       61.44945827        1.24495008
      108.32890       63.41460581        1.25272915
      108.42859       67.76441196        1.64378341
      108.52828       65.50189416        1.37075279
      108.62798       65.40601543        1.24202419
      108.72767       66.98881949        1.20654269
      108.82736       65.98575055        1.22381729
      108.92706       67.77803730        1.57096348
      109.02675       64.76976287        1.34334209
      109.12644       64.99988843        1.31345801
      109.22614       65.46331524        1.31919072
      109.32583       64.01588830        1.42145445
      109.42552       65.28159192        1.51418586
      109.52522       67.51976908        1.38942348
      109.62491       64.61371313        1.29269088
      109.72461       61.28024136        1.20344256
      109.82430       64.97891646        1.15775329
      109.92399       62.29223758        1.47370709
      110.02369       62.59315655        1.29366341
      110.12338       60.05045080        1.25874601
      110.22307       61.28436394        1.26215078
      110.32277       59.50523673        1.26993522
      110.42246       61.15813351        1.56548583
      110.52215       58.86721149        1.30073504
      110.62185       56.61886389        1.20215427
      110.72154       53.99206963        1.09512527
      110.82123       56.08153137        1.15276572
      110.92093       55.53875411        1.33795333
      111.02062       55.65649504        1.23738839
      111.12031       53.99654060        1.22782471
      111.22001       57.49242236        1.24336667
      111.31970       60.41948529        1.38346285
      111.41939       58.91132194        1.41350838
      111.51909       57.42403809        1.26622640
      111.61878       59.89706385        1.21832734
      111.71847       60.68382686        1.14096591
      111.81817       66.47168053        1.29632213
      111.91786       64.56768221        1.34444805
      112.01755       67.56099342        1.34300327
      112.11725       69.95293181        1.37703656
      112.21694       72.71436594        1.39778387
      112.31663       71.99682244        1.53263113
      112.41633       74.41791899        1.53087632
      112.51602       76.69943657        1.43130944
      112.61571       79.35115852        1.38889029
      112.71541       81.39761134        1.32573912
      112.81510       85.08753907        1.52003170
      112.91479       87.16356793        1.56727385
      113.01449       86.42502679        1.52819932
      113.11418       85.81851690        1.51770550
      113.21387       87.26987447        1.52360072
      113.31357       90.76026451        1.72579375
      113.41326       91.28536796        1.64487134
      113.51296       90.64308307        1.54176122
      113.61265       91.71286417        1.49645414
      113.71234       93.06738897        1.43995706
      113.81204       91.42713544        1.63497223
      113.91173       92.15008364        1.59061113
      114.01142       88.13999020        1.53973114
      114.11112       87.06551286        1.52944801
      114.21081       87.58700787        1.54514561
      114.31050       90.20496006        1.77841424
      114.41020       87.67932338        1.62004010
      114.50989       88.25394228        1.52161522
      114.60958       84.38776845        1.43968098
      114.70928       85.89398409        1.40095276
      114.80897       85.67389922        1.58688950
      114.90866       82.33288761        1.46711094
      115.00836       87.43599085        1.50509730
      115.10805       87.21972835        1.51141112
      115.20774       88.20346449        1.54296497
      115.30744       86.83539640        1.75772873
      115.40713       90.10539068        1.62196524
      115.50682       89.72641359        1.52801646
      115.60652       87.74209986        1.45618241
      115.70621       89.66285818        1.41482679
      115.80590       92.23420343        1.67416070
      115.90560       95.10498513        1.54099219
      116.00529       92.70605100        1.53827904
      116.10498       97.03283433        1.59045231
      116.20468       98.83664402        1.64212488
      116.30437       98.37912238        1.95294620
      116.40406      101.25935542        1.72582776
      116.50376      100.37569903        1.62371600
      116.60345      103.69301831        1.58437461
      116.70314      106.16595900        1.55465629
      116.80284      113.17419313        1.90769517
      116.90253      116.11951822        1.73843421
      117.00222      122.95844780        1.77517093
      117.10192      122.26868039        1.81756883
      117.20161      127.76372079        1.88094307
      117.30131      123.73695108        2.21471104
      117.40100      129.86772451        1.90788807
      117.50069      135.29507636        1.84986377
      117.60039      139.35825579        1.79696845
      117.70008      147.07451136        1.78889154
      117.79977      150.75485118        2.21964337
      117.89947      155.83602611        1.96219951
      117.99916      157.86011636        1.99859357
      118.09885      160.24992066        2.05159124
      118.19855      166.36137556        2.18987008
      118.29824      164.34399250        2.38590423
      118.39793      169.31425328        2.19911006
      118.49763      171.77432708        2.09035494
      118.59732      176.03586740        2.04337983
      118.69701      177.98896057        2.14059553
      118.79671      175.05368389        2.29197455
      118.89640      181.75953974        2.17798776
      118.99609      180.56781737        2.16842303
      119.09579      177.08758681        2.17219070
      119.19548      179.49766308        2.38976649
      119.29517      177.04605578        2.46556221
      119.39487      179.15296600        2.28011944
      119.49456      173.84043656        2.11621651
      119.59425      169.29487851        2.02781156
      119.69395      166.13251714        2.11905436
      119.79364      162.10629858        2.11516124
      119.89333      161.56101455        2.04360921
      119.99303      156.48213068        1.96332905
      120.09272      149.66418435        1.96337392
      120.19241      149.38866682        2.20481738
      120.29211      142.07532981        2.12770344
      120.39180      141.46443700        2.02550931
      120.49149      135.02029485        1.84000325
      120.59119      132.00580929        1.76568969
      120.69088      123.92034251        1.84112076
      120.79057      126.47289534        1.82021976
      120.89027      123.64621682        1.76677352
      120.98996      123.76492146        1.75404405
      121.08966      118.81471042        1.73117317
      121.18935      121.47550956        2.00665656
      121.28904      117.17331338        1.92055239
      121.38874      118.46346452        1.82621197
      121.48843      115.34361083        1.70182200
      121.58812      114.82318571        1.61941375
      121.68782      117.03611174        1.81138141
      121.78751      115.09357575        1.71157085
      121.88720      112.65021552        1.67151275
      121.98690      110.67432895        1.66908677
      122.08659      114.21098950        1.72971479
      122.18628      109.26379631        1.96229122
      122.28598      110.87924315        1.85901468
      122.38567      107.98810369        1.75689835
      122.48536      109.08683103        1.67040628
      122.58506      110.48876951        1.59226252
      122.68475      106.72649231        1.77310105
      122.78444      109.31488181        1.68984785
      122.88414      105.83902798        1.64844945
      122.98383      104.92704253        1.67490908
      123.08352      103.26794094        1.64731037
      123.18322       99.12080972        1.88203774
      123.28291      103.84172719        1.75103479
      123.38260      101.60552391        1.67195642
      123.48230      104.37756118        1.63344575
      123.58199      101.48291422        1.50526605
      123.68168      101.87527293        1.72100559
      123.78138       97.11805243        1.51576066
      123.88107       94.82130407        1.46298321
      123.98076       90.47723573        1.45529224
      124.08046       88.39494393        1.42318849
      124.18015       89.42476199        1.62026709
      124.27984       90.25836382        1.45844641
      124.37954       87.27397235        1.35315089
      124.47923       86.45145385        1.31474004
      124.57893       80.43917988        1.35085139
