        5.04651       53.82499827        2.50251672
        5.14621       55.41976323        2.44741170
        5.24590       54.22419867        2.38605250
        5.34559       54.31190782        2.19017900
        5.44529       51.25589391        2.31446112
        5.54498       50.72452570        1.93671948
        5.64467       51.10833900        1.92706729
        5.74437       52.83504321        1.76878859
        5.84406       51.12515784        1.76070040
        5.94375       53.59936989        1.80054217
        6.04345       49.08608439        1.67401838
        6.14314       49.72668842        1.54275580
        6.24283       48.32911537        1.57105071
        6.34253       48.28608337        1.49778894
        6.44222       46.61325519        1.54946673
        6.54191       47.45690443        1.48114955
        6.64161       47.93908580        1.41028414
        6.74130       48.43791348        1.42335344
        6.84099       49.73697884        1.43193665
        6.94069       49.05990694        1.44353713
        7.04038       46.77960445        1.30104910
        7.14007       49.81966805        1.34001900
        7.23977       47.13179285        1.28046047
        7.33946       48.91231415        1.32447271
        7.43915       47.68668464        1.29065280
        7.53885       48.97983992        1.28395999
        7.63854       48.38032216        1.21962081
        7.73823       45.66594001        1.23024854
        7.83793       48.66057618        1.22907121
        7.93762       46.29210790        1.25040281
        8.03732       45.50949563        1.11184393
        8.13701       47.95349617        1.13625421
        8.23670       48.83398242        1.16285403
        8.33640       47.65503003        1.14899921
        8.43609       48.29485341        1.20929539
        8.53578       47.44424020        1.11639105
        8.63548       47.57637919        1.10510043
        8.73517       47.99502429        1.08881290
        8.83486       45.85630407        1.06678843
        8.93456       47.50818149        1.08031880
        9.03425       46.10731480        1.03305605
        9.13394       49.68885083        1.07458332
        9.23364       49.21951508        1.08509416
        9.33333       46.35725847        1.07440332
        9.43302       48.56676902        1.10020453
        9.53272       47.17219607        1.04760862
        9.63241       48.02026937        1.08689214
        9.73210       47.17638251        1.07510819
        9.83180       46.17048893        1.10820843
        9.93149       49.03501753        1.13400852
       10.03118       47.66170304        1.07569278
       10.13088       46.72103501        1.03947016
       10.23057       48.53178629        1.10950123
       10.33026       46.36065019        1.12082481
       10.42996       46.66585601        1.10911269
       10.52965       46.99394967        1.07790527
       10.62934       44.84537067        1.05542588
       10.72904       48.06664457        1.10896030
       10.82873       46.40784371        1.08410265
       10.92842       47.60151011        1.11640709
       11.02812       48.40264763        1.07255654
       11.12781       49.44854418        1.12301001
       11.22750       47.98342081        1.11721163
       11.32720       48.63581795        1.15506137
       11.42689       52.15492144        1.15476351
       11.52658       51.65250387        1.13547216
       11.62628       52.93524993        1.16200977
       11.72597       56.24172409        1.22333347
       11.82567       60.02777799        1.29915666
       11.92536       63.62735603        1.25185558
       12.02505       66.57459825        1.28661592
       12.12475       72.68432947        1.34342388
       12.22444       82.90899041        1.52196258
       12.32413       93.70750940        1.64325580
       12.42383      102.51198049        1.63171069
       12.52352      120.81719552        1.76133154
       12.62321      137.22951716        1.93109208
       12.72291      163.51678032        2.05243444
       12.82260      185.88032830        2.37964264
       12.92229      210.78102023        2.30246942
       13.02199      238.57872658        2.43121573
       13.12168      267.76950021        2.62138131
       13.22137      296.19007388        2.84717416
       13.32107      322.77052331        3.06850765
       13.42076      345.18564559        3.05481059
       13.52045      359.69723576        3.15573073
       13.62015      366.73805380        3.08841974
       13.71984      347.32205947        3.13125792
       13.81953      316.55355195        3.03894761
       13.91923      282.63176423        2.69691967
       14.01892      221.24454411        2.32166040
       14.11861      172.40780769        2.13758394
       14.21831      130.40195181        1.85995379
       14.31800      108.14352023        1.78298884
       14.41769       84.80069963        1.52004966
       14.51739       69.96535312        1.34674025
       14.61708       60.07147191        1.25081468
       14.71677       55.00263294        1.21630655
       14.81647       52.05336076        1.23946287
       14.91616       51.55214381        1.13432961
       15.01585       49.52140057        1.13173206
       15.11555       48.84195462        1.13694230
       15.21524       46.77102822        1.14659862
       15.31493       48.04383973        1.19017269
       15.41463       47.38935066        1.14445493
       15.51432       48.02934310        1.11648281
       15.61402       47.69323058        1.14072863
       15.71371       45.74012758        1.10937755
       15.81340       47.26010201        1.17315901
       15.91310       46.42122666        1.12971202
       16.01279       48.44162023        1.10505520
       16.11248       46.39003228        1.11036109
       16.21218       46.82549902        1.14649265
       16.31187       46.51373882        1.14545108
       16.41156       48.43668376        1.14720089
       16.51126       46.81157767        1.14679531
       16.61095       48.42834901        1.12477016
       16.71064       51.39474030        1.19546462
       16.81034       54.04551882        1.22973079
       16.91003       51.95778525        1.17088610
       17.00972       54.19458184        1.14807463
       17.10942       58.80660096        1.26422406
       17.20911       59.82303134        1.28639367
       17.30880       64.48019579        1.34731952
       17.40850       67.41642831        1.37744212
       17.50819       72.91961350        1.39126537
       17.60788       74.00734620        1.44516416
       17.70758       77.54866455        1.48561525
       17.80727       71.50970277        1.44390515
       17.90696       73.69191955        1.37057436
       18.00666       66.95453042        1.32905318
       18.10635       62.45309993        1.24834343
       18.20604       58.25645020        1.32247159
       18.30574       56.44195134        1.24054949
       18.40543       55.89013207        1.20390844
       18.50512       54.85914206        1.23035371
       18.60482       53.12396469        1.19167823
       18.70451       51.96084821        1.24540513
       18.80420       52.38570859        1.17476127
       18.90390       51.49975790        1.15231495
       19.00359       50.37033574        1.10977593
       19.10328       49.40191626        1.16274876
       19.20298       45.92701087        1.15585308
       19.30267       46.39185927        1.11561058
       19.40237       47.44897877        1.11552183
       19.50206       45.24459150        1.11660160
       19.60175       46.70266059        1.12178782
       19.70145       45.07520291        1.15555537
       19.80114       44.70492004        1.09144981
       19.90083       44.89509278        1.05681274
       20.00053       45.77444928        1.08608047
       20.10022       47.63644416        1.11625192
       20.19991       48.81845988        1.20816313
       20.29961       47.18770221        1.12539419
       20.39930       50.10270683        1.19478776
       20.49899       50.61857761        1.18008081
       20.59869       49.53740766        1.18870935
       20.69838       53.15483087        1.27691665
       20.79807       53.51667923        1.22207690
       20.89777       53.26019051        1.19155319
       20.99746       56.46972700        1.23926963
       21.09715       55.79936885        1.29754439
       21.19685       57.48884478        1.31025454
       21.29654       58.14177231        1.28541315
       21.39623       58.17578589        1.28585801
       21.49593       54.14921335        1.22265614
       21.59562       53.56142307        1.24525796
       21.69531       51.04109405        1.26428007
       21.79501       48.58172518        1.12825870
       21.89470       46.53691678        1.07933388
       21.99439       45.74458325        1.11544506
       22.09409       45.63909085        1.11691481
       22.19378       46.18015146        1.19318629
       22.29347       45.78041056        1.10643166
       22.39317       45.85670928        1.13604312
       22.49286       44.28950935        1.11550769
       22.59255       47.66039711        1.17092546
       22.69225       49.74918979        1.26076485
       22.79194       49.71801142        1.13192813
       22.89163       56.14127820        1.17957582
       22.99133       56.46737573        1.21581629
       23.09102       61.54398904        1.31845059
       23.19072       66.16908577        1.37054225
       23.29041       69.38139915        1.38609866
       23.39010       70.27251740        1.40962970
       23.48980       67.69302358        1.38841321
       23.58949       62.70593709        1.35397346
       23.68918       62.99437227        1.42707496
       23.78888       59.03507966        1.23102095
       23.88857       51.95963657        1.16971895
       23.98826       48.01906210        1.14944781
       24.08796       46.37012738        1.10746772
       24.18765       45.60257925        1.17676576
       24.28734       44.44693800        1.10606387
       24.38704       44.62220962        1.12677208
       24.48673       44.02653576        1.11520008
       24.58642       42.64695892        1.13385060
       24.68612       44.81245947        1.16083399
       24.78581       44.57535218        1.06724841
       24.88550       44.35901337        1.06421325
       24.98520       44.54156857        1.10585426
       25.08489       45.75196830        1.14320659
       25.18458       45.18888758        1.15999317
       25.28428       46.19418797        1.13043337
       25.38397       47.43501486        1.14000049
       25.48366       49.62411664        1.17307481
       25.58336       55.34190445        1.29147196
       25.68305       60.59752366        1.32564501
       25.78274       71.19727040        1.35659569
       25.88244       85.56401004        1.52527162
       25.98213      105.20032454        1.70579871
       26.08182      128.43055801        1.93506664
       26.18152      150.16134823        2.14371760
       26.28121      178.29652003        2.21078624
       26.38090      194.08873777        2.32668551
       26.48060      194.09303719        2.39080520
       26.58029      185.94173538        2.44097283
       26.67998      175.68478169        2.24099826
       26.77968      146.19736836        2.01894848
       26.87937      113.82859401        1.75487153
       26.97907       95.29380894        1.59181860
       27.07876       86.11965795        1.62919266
       27.17845       76.63055428        1.46824300
       27.27815       76.33420608        1.43103878
       27.37784       82.88610326        1.54960804
       27.47753       85.61416042        1.55176816
       27.57723       85.24788147        1.62205478
       27.67692       81.81775884        1.55091210
       27.77661       78.23588275        1.44740785
       27.87631       70.33676043        1.34932667
       27.97600       61.28748063        1.28762447
       28.07569       56.27225407        1.30568695
       28.17539       53.31634112        1.21660947
       28.27508       49.88080557        1.17715224
       28.37477       51.93778251        1.22985963
       28.47447       46.93701502        1.15981825
       28.57416       51.06360165        1.30805235
       28.67385       51.33545751        1.16685225
       28.77355       52.06873705        1.15397376
       28.87324       56.93689858        1.23905824
       28.97293       56.19641970        1.23381135
       29.07263       58.75893409        1.37536116
       29.17232       58.18315034        1.24894755
       29.27201       55.71664951        1.24466585
       29.37171       53.35175882        1.25283517
       29.47140       50.26218908        1.20186184
       29.57109       50.20543302        1.27373955
       29.67079       46.99449898        1.12178186
       29.77048       45.50090094        1.10631462
       29.87017       45.61747279        1.08599337
       29.96987       45.44111502        1.13648442
       30.06956       46.68923636        1.18853656
       30.16925       46.33818238        1.11485130
       30.26895       48.91674576        1.14993036
       30.36864       49.94354140        1.18096716
       30.46833       50.84162268        1.20364794
       30.56803       52.57084323        1.29296720
       30.66772       54.38260944        1.22382692
       30.76742       56.07466682        1.21790167
       30.86711       59.92534050        1.28427289
       30.96680       62.07658668        1.31476764
       31.06650       60.46317147        1.36049309
       31.16619       59.67619704        1.27080760
       31.26588       58.63804141        1.25210028
       31.36558       58.12098897        1.26287521
       31.46527       56.16688397        1.29167088
       31.56496       60.75539144        1.36518616
       31.66466       62.91674058        1.29930143
       31.76435       70.65238174        1.37576501
       31.86404       76.99948458        1.41758705
       31.96374       85.04935832        1.52475528
       32.06343       87.16298716        1.59745992
       32.16312       85.28052552        1.48488266
       32.26282       85.03130528        1.51898935
       32.36251       79.96584278        1.53180242
       32.46220       72.29802432        1.48231461
       32.56190       73.04592819        1.51648749
       32.66159       66.46931168        1.37347842
       32.76128       66.80357939        1.34606246
       32.86098       64.35832958        1.34092733
       32.96067       62.76941813        1.34078912
       33.06036       62.24496461        1.35951501
       33.16006       56.73522699        1.22211894
       33.25975       55.97650638        1.25332323
       33.35944       55.95698968        1.25989500
       33.45914       56.74124624        1.31698622
       33.55883       57.83472827        1.33277727
       33.65852       59.18656716        1.25728650
       33.75822       66.17827465        1.32744582
       33.85791       74.03893557        1.41007666
       33.95760       80.62819514        1.51513941
       34.05730       92.35635595        1.60628201
       34.15699      105.75993558        1.69204448
       34.25668      121.18293631        1.80538094
       34.35638      149.46619767        2.05789720
       34.45607      185.41516617        2.41517355
       34.55577      227.91096805        2.55271209
       34.65546      298.99399010        2.80651234
       34.75515      361.80436518        3.14694608
       34.85485      425.12003780        3.38741032
       34.95454      443.34461309        3.56799727
       35.05423      436.55537221        3.66208547
       35.15393      385.29304170        3.22888956
       35.25362      316.73361933        2.97164545
       35.35331      247.66196217        2.69464831
       35.45301      188.06280726        2.44879751
       35.55270      143.49710363        2.08171866
       35.65239      108.62592394        1.74831569
       35.75209       86.02544617        1.54374836
       35.85178       81.65227173        1.50193843
       35.95147       75.08172164        1.47389747
       36.05117       67.42435639        1.36765505
       36.15086       65.49841842        1.29607689
       36.25055       65.10895993        1.35007254
       36.35025       63.58534411        1.36025592
       36.44994       60.93468312        1.35810454
       36.54963       57.67573198        1.26824120
       36.64933       53.94979435        1.20813300
       36.74902       57.15425211        1.25663222
       36.84871       53.53297614        1.20724373
       36.94841       52.51244333        1.29301129
       37.04810       52.03447007        1.13489057
       37.14779       48.94684344        1.12315329
       37.24749       49.58194319        1.16188757
       37.34718       49.31899664        1.18835189
       37.44687       50.10587613        1.28670387
       37.54657       47.40591803        1.14248070
       37.64626       45.03449510        1.10917621
       37.74595       46.01256453        1.10366442
       37.84565       47.37045229        1.18493931
       37.94534       48.81902667        1.22553357
       38.04503       46.97502594        1.08647752
       38.14473       46.41493880        1.09054310
       38.24442       48.99789551        1.14105823
       38.34412       46.60448155        1.16336123
       38.44381       48.61910328        1.28492563
       38.54350       49.05808409        1.15057471
       38.64320       48.47497567        1.14022632
       38.74289       51.83330968        1.19462422
       38.84258       54.26204093        1.22535210
       38.94228       52.91304154        1.26909511
       39.04197       58.70746158        1.20562209
       39.14166       62.42048393        1.29335465
       39.24136       68.63520205        1.35282742
       39.34105       71.66122161        1.43066550
       39.44074       71.52468167        1.55901820
       39.54044       71.49895347        1.39371830
       39.64013       69.76454158        1.37242980
       39.73982       68.20740202        1.36246503
       39.83952       63.08109245        1.30119271
       39.93921       59.44106541        1.33912302
       40.03890       60.20546815        1.23368061
       40.13860       57.66930661        1.20575152
       40.23829       55.91590575        1.22920814
       40.33798       57.17028191        1.28172109
       40.43768       55.25372265        1.31827066
       40.53737       56.97098926        1.24246786
       40.63706       57.64780132        1.27609807
       40.73676       56.84785049        1.26516486
       40.83645       60.39500865        1.31508862
       40.93614       65.81377299        1.39608012
       41.03584       67.13935263        1.32701509
       41.13553       79.15826649        1.44302065
       41.23522       94.59195005        1.61632177
       41.33492      115.61501840        1.87138524
       41.43461      135.00530952        2.08762720
       41.53430      161.09856536        2.13658119
       41.63400      190.10437098        2.37287201
       41.73369      206.75442192        2.42110658
       41.83338      213.86333387        2.52840543
       41.93308      217.16353146        2.52535510
       42.03277      223.68354865        2.34289114
       42.13247      246.45229069        2.58566060
       42.23216      299.12155265        2.85606818
       42.33185      355.06848704        3.34158459
       42.43155      421.36197058        3.58848121
       42.53124      472.03183230        3.67733203
       42.63093      519.04732470        3.86443839
       42.73063      546.04034429        3.98297362
       42.83032      524.78122153        3.97242389
       42.93001      492.14910378        3.70213574
       43.02971      429.99018149        3.26842977
       43.12940      341.73653317        2.97062202
       43.22909      267.24645417        2.75962340
       43.32879      204.94674807        2.54419202
       43.42848      155.04721129        2.16282489
       43.52817      112.91895135        1.76466935
       43.62787       87.49284847        1.54745995
       43.72756       74.40567182        1.46046095
       43.82725       66.71225951        1.44376851
       43.92695       60.89363445        1.25064702
       44.02664       58.76764441        1.22269107
       44.12633       56.95962518        1.24854039
       44.22603       56.19733897        1.29080313
       44.32572       55.22379292        1.34857569
       44.42541       52.66153756        1.25721768
       44.52511       52.86961867        1.22582551
       44.62480       56.44988666        1.28471862
       44.72449       56.69225837        1.24767111
       44.82419       61.68533432        1.46060470
       44.92388       65.74578671        1.25773867
       45.02357       75.59348804        1.36003734
       45.12327       89.28273868        1.52289082
       45.22296      107.41290696        1.71497698
       45.32265      133.09992126        2.11290412
       45.42235      150.49399365        2.04602762
       45.52204      174.22330618        2.17991085
       45.62174      206.25316244        2.41631178
       45.72143      223.53095807        2.51580422
       45.82112      231.15440173        2.80073023
       45.92082      228.98269371        2.36620222
       46.02051      231.45553192        2.43004702
       46.12020      224.64955531        2.40164846
       46.21990      213.40846924        2.45944699
       46.31959      196.80449323        2.54983522
       46.41928      183.00800591        2.27086410
       46.51898      154.17488076        2.09478265
       46.61867      124.88041414        1.87467737
       46.71836      100.70032319        1.72578387
       46.81806       87.61527219        1.66876429
       46.91775       71.55024569        1.31392628
       47.01744       63.25501376        1.26457230
       47.11714       64.25055931        1.30363681
       47.21683       70.05406522        1.40154517
       47.31652       78.74210968        1.62141506
       47.41622       90.60834285        1.63952497
       47.51591      105.62070624        1.77391675
       47.61560      117.23786264        1.85348317
       47.71530      130.91556325        1.98006160
       47.81499      147.01399692        2.15164471
       47.91468      160.92971996        1.96974209
       48.01438      169.41665906        2.02211363
       48.11407      173.74515273        2.12452953
       48.21376      171.59028732        2.20420651
       48.31346      168.07095454        2.25914147
       48.41315      157.37155816        2.03729257
       48.51284      144.25958239        2.01514356
       48.61254      128.72504765        1.89540776
       48.71223      105.31721476        1.74465060
       48.81192       92.40936237        1.63002477
       48.91162       78.23016723        1.34404282
       49.01131       64.64380924        1.26415384
       49.11100       57.78799875        1.23807787
       49.21070       54.04214565        1.25686392
       49.31039       51.42612141        1.26174052
       49.41009       49.91310389        1.17422709
       49.50978       51.28667479        1.21496331
       49.60947       49.73306872        1.20511178
       49.70917       48.28814296        1.23144523
       49.80886       47.69843690        1.19113583
       49.90855       47.78062810        1.08598584
       50.00825       51.14028972        1.14738374
       50.10794       50.05903540        1.16098032
       50.20763       54.35874892        1.26416622
       50.30733       51.17185228        1.28465160
       50.40702       53.85175480        1.23596262
       50.50671       53.10765959        1.23096620
       50.60641       56.09897238        1.26708415
       50.70610       54.38229616        1.28360183
       50.80579       57.24912153        1.29975220
       50.90549       56.83695381        1.16759375
       51.00518       55.93723452        1.16854801
       51.10487       53.86213674        1.18521502
       51.20457       53.33701093        1.25557866
       51.30426       56.98599727        1.29123241
       51.40395       56.57340306        1.23336070
       51.50365       60.65141407        1.29181034
       51.60334       62.42290795        1.33650534
       51.70303       58.49609154        1.37373739
       51.80273       61.62086857        1.29344874
       51.90242       62.05209111        1.21272131
       52.00211       61.23417583        1.21036446
       52.10181       62.86422858        1.26525598
       52.20150       63.46242481        1.40003533
       52.30119       61.87612085        1.33161622
       52.40089       64.05175997        1.33371195
       52.50058       61.73875113        1.33403775
       52.60027       59.62991676        1.32886466
       52.69997       61.53587560        1.47950692
       52.79966       61.30981813        1.24157079
       52.89935       69.17707198        1.27286172
       52.99905       74.82930810        1.34567781
       53.09874       85.55929928        1.48572195
       53.19844       98.00758535        1.82145138
       53.29813      109.93334611        1.71475598
       53.39782      121.51780041        1.86539755
       53.49752      131.35775929        1.94857411
       53.59721      141.94077514        2.02444667
       53.69690      147.27226791        2.26286964
       53.79660      149.88304885        1.91236906
       53.89629      148.84548236        1.88511868
       53.99598      144.20810632        1.90068301
       54.09568      131.74384825        1.89651417
       54.19537      124.16732753        2.00775107
       54.29506      113.86231022        1.76590992
       54.39476      101.75323775        1.68180507
       54.49445       95.14863908        1.62723908
       54.59414       90.81863334        1.61383996
       54.69384       86.03466260        1.67545755
       54.79353       85.38423566        1.43131860
       54.89322       84.02593804        1.41473622
       54.99292       79.55617117        1.41671500
       55.09261       74.38456353        1.42439206
       55.19230       70.31280003        1.48701343
       55.29200       65.62689221        1.33693267
       55.39169       63.34253236        1.35518571
       55.49138       59.49866628        1.30839830
       55.59108       56.97970215        1.32136212
       55.69077       54.99739882        1.33218690
       55.79046       57.37906851        1.18975706
       55.89016       56.54852019        1.17825866
       55.98985       55.06696351        1.17011336
       56.08954       61.18309977        1.27429829
       56.18924       63.37912483        1.39977865
       56.28893       73.27925562        1.37795601
       56.38862       83.37270675        1.52074375
       56.48832       91.43058236        1.62019692
       56.58801      104.52272283        1.78300965
       56.68770      111.90220314        1.90442755
       56.78740      115.43521288        1.65553358
       56.88709      114.39614427        1.66445924
       56.98679      110.80269851        1.63946459
       57.08648      100.97741051        1.65869115
       57.18617       86.24140413        1.58656570
       57.28587       74.89644077        1.38102748
       57.38556       67.92091841        1.39976802
       57.48525       61.23251891        1.35436093
       57.58495       59.91718090        1.37042654
       57.68464       53.33829568        1.30400309
       57.78433       53.06919239        1.13785881
       57.88403       51.94737272        1.13884773
       57.98372       51.91994322        1.15667580
       58.08341       53.55880849        1.27029324
       58.18311       52.41301996        1.28540034
       58.28280       52.89347744        1.21626141
       58.38249       55.09909471        1.29720615
       58.48219       52.63867794        1.29517887
       58.58188       52.48519118        1.30742609
       58.68157       51.68325836        1.27130517
       58.78127       52.68166452        1.12274290
       58.88096       52.37535709        1.10294466
       58.98065       56.26206249        1.18682559
       59.08035       55.83763174        1.26159746
       59.18004       58.29635819        1.30775437
       59.27973       58.32553764        1.23415053
       59.37943       59.68826750        1.28968706
       59.47912       65.72713572        1.40910383
       59.57881       69.32225067        1.51614239
       59.67851       77.31336133        1.49312370
       59.77820       81.83184085        1.41228236
       59.87789       92.93715249        1.50017859
       59.97759       98.62602712        1.61681219
       60.07728      108.04711991        1.83309093
       60.17697      105.45367255        1.72496262
       60.27667      109.82393210        1.71171660
       60.37636      107.28499105        1.72447856
       60.47605      103.08874694        1.76327074
       60.57575      102.44132417        1.92639909
       60.67544       96.18089323        1.60339113
       60.77514       88.97782299        1.46585409
       60.87483       79.67707670        1.35987038
       60.97452       73.52238977        1.37594454
       61.07422       69.27330807        1.50019235
       61.17391       66.20042694        1.27024026
       61.27360       64.41322862        1.29738885
       61.37330       66.93045766        1.37166533
       61.47299       70.38139079        1.46857719
       61.57268       70.79033914        1.67490205
       61.67238       71.30952610        1.37010397
       61.77207       71.66810299        1.33774808
       61.87176       68.80711612        1.29604019
       61.97146       70.27465207        1.35991055
       62.07115       69.90790813        1.53614625
       62.17084       65.80920348        1.30561669
       62.27054       67.40499736        1.37783172
       62.37023       67.13325159        1.42981658
       62.46992       66.04517070        1.46673266
       62.56962       68.61887162        1.67930294
       62.66931       69.80441049        1.36452562
       62.76900       76.06942750        1.38866233
       62.86870       82.26816704        1.41287500
       62.96839       91.00906320        1.53383162
       63.06808       98.42329916        1.77545685
       63.16778      108.42346236        1.65464371
       63.26747      111.07119823        1.73310038
       63.36716      116.59966796        1.84302952
       63.46686      117.89849563        1.90883091
       63.56655      125.13613305        2.08962570
       63.66624      135.01076753        1.84532505
       63.76594      145.37603344        1.86049546
       63.86563      162.95294253        1.96464470
       63.96532      166.97117357        2.08111266
       64.06502      177.76750691        2.30124690
       64.16471      171.21380487        2.08856005
       64.26440      161.95820167        2.11417602
       64.36410      154.02231444        2.10312573
       64.46379      137.74733571        2.10257133
       64.56349      121.18616010        2.00637531
       64.66318      105.06735358        1.63450399
       64.76287       88.76887771        1.48325153
       64.86257       74.02050145        1.35183389
       64.96226       63.71766851        1.31337218
       65.06195       58.60626635        1.36181214
       65.16165       56.54146507        1.20655991
       65.26134       53.35990018        1.19943336
       65.36103       54.68625827        1.26710300
       65.46073       53.39821194        1.29317158
       65.56042       53.38582226        1.35048121
       65.66011       55.73069219        1.20324510
       65.75981       56.41893205        1.19856894
       65.85950       60.11645322        1.22947978
       65.95919       61.61524605        1.30300898
       66.05889       66.03038345        1.39541539
       66.15858       66.51443367        1.33176268
       66.25827       78.68256961        1.49851638
       66.35797       86.43037824        1.63637169
       66.45766       96.22144218        1.83489968
       66.55735      110.73764104        1.96859144
       66.65705      123.95298416        1.84796581
       66.75674      135.67295085        1.88435939
       66.85643      152.95734351        1.97886463
       66.95613      164.29690424        2.13298688
       67.05582      166.59216580        2.16398341
       67.15551      166.49723544        2.05868460
       67.25521      163.54501200        2.14155900
       67.35490      152.63640008        2.17755595
       67.45459      135.03468954        2.15921043
       67.55429      123.80406315        1.98057590
       67.65398      103.62004978        1.62343350
       67.75367       87.82131549        1.48180628
       67.85337       77.66441563        1.41029115
       67.95306       75.79894786        1.48978167
       68.05275       77.31397794        1.42476499
       68.15245       81.29274518        1.44852398
       68.25214       84.82460754        1.57055024
       68.35184       94.93852655        1.73207320
       68.45153       98.25293115        1.93981304
       68.55122      106.01611051        1.73615058
       68.65092      115.09556302        1.68645303
       68.75061      124.83236710        1.77491563
       68.85030      129.64548303        1.84387899
       68.95000      128.18209953        2.07859581
       69.04969      120.26752673        1.69996519
       69.14938      112.63643661        1.69142367
       69.24908      102.29425250        1.72102536
       69.34877       92.23041372        1.68981063
       69.44846       87.70201103        1.91123343
       69.54816       74.24103104        1.37051935
       69.64785       66.94907962        1.28294359
       69.74754       60.01369573        1.22666472
       69.84724       56.58561365        1.22206672
       69.94693       51.68679780        1.31791779
       70.04662       49.90396355        1.06486543
       70.14632       47.92541628        1.08506769
       70.24601       46.75091642        1.14744552
       70.34570       48.58163422        1.23784298
       70.44540       46.42521015        1.42562688
       70.54509       49.44414532        1.15171953
       70.64478       48.20187227        1.13549222
       70.74448       50.60054244        1.18194192
       70.84417       50.40166784        1.22406061
       70.94386       52.03750263        1.36538499
       71.04356       51.24105403        1.12114126
       71.14325       52.92106566        1.18407927
       71.24294       51.37602600        1.22745450
       71.34264       54.74580119        1.34368906
       71.44233       52.91210509        1.47399175
       71.54202       55.40538760        1.22806903
       71.64172       54.82818459        1.18833742
       71.74141       53.15799508        1.14879713
       71.84110       52.13631466        1.17766014
       71.94080       54.27864579        1.30948103
       72.04049       52.71502508        1.09220535
       72.14019       54.21452517        1.15410604
       72.23988       51.63610258        1.17838187
       72.33957       50.80822941        1.30562757
       72.43927       48.00321734        1.39686006
       72.53896       53.14964712        1.17870187
       72.63865       53.83813002        1.15959382
       72.73835       54.63200662        1.14245334
       72.83804       57.51255444        1.23790987
       72.93773       57.31313672        1.31264121
       73.03743       61.29390810        1.17845548
       73.13712       63.03845314        1.26040912
       73.23681       63.02515963        1.32403329
       73.33651       65.17470744        1.48165168
       73.43620       61.50771302        1.55883699
       73.53589       62.05655490        1.26311958
       73.63559       66.29365399        1.28522004
       73.73528       61.50705682        1.23212031
       73.83497       63.81197504        1.33060846
       73.93467       64.81643172        1.41216891
       74.03436       65.98595765        1.26104182
       74.13405       64.10953325        1.29574310
       74.23375       64.66297783        1.35554223
       74.33344       64.02611214        1.48486581
       74.43313       65.40426575        1.55735779
       74.53283       66.22604632        1.33151714
       74.63252       65.61235098        1.31569841
       74.73221       69.85821493        1.35115799
       74.83191       73.90585407        1.47443513
       74.93160       79.37371482        1.54549387
       75.03129       82.86168959        1.40398781
       75.13099       83.99893215        1.46419710
       75.23068       92.71108601        1.60491871
       75.33037       97.36034852        1.80801962
       75.43007       98.05420063        1.84055938
       75.52976      109.77521657        1.69208881
       75.62945      121.97367590        1.78265657
       75.72915      125.74327042        1.80289772
       75.82884      133.17192589        1.99801437
       75.92854      136.56901956        1.89952987
       76.02823      142.90703129        1.82267998
       76.12792      148.66262299        1.94337849
       76.22762      151.73901678        2.07167011
       76.32731      148.52923370        2.31456669
       76.42700      151.89849104        2.20943690
       76.52670      148.22686080        2.01329398
       76.62639      142.12701753        1.94617048
       76.72608      134.36905632        1.86050511
       76.82578      125.95625641        2.07507829
       76.92547      122.21297159        1.63702686
       77.02516      124.39470979        1.71192081
       77.12486      124.81544013        1.80139375
       77.22455      128.90773430        1.94950847
       77.32424      129.86661490        2.40393621
       77.42394      135.42219878        1.96043824
       77.52363      132.24001272        1.87179219
       77.62332      136.38398135        1.89241566
       77.72302      145.57894275        1.96015657
       77.82271      146.89832534        2.30922355
       77.92240      147.45907283        1.77165440
       78.02210      143.36867086        1.88471371
       78.12179      143.45051996        2.01357856
       78.22148      138.74134510        2.09375729
       78.32118      133.70148764        2.38461925
       78.42087      131.20777656        1.85907028
       78.52056      120.25564224        1.83733298
       78.62026      116.31388747        1.79264244
       78.71995      107.49561385        1.72869260
       78.81964      106.53809973        1.92233962
       78.91934       94.61330645        1.40320013
       79.01903       82.63738732        1.43721494
       79.11872       74.98890584        1.42449967
       79.21842       71.46010740        1.48328057
       79.31811       66.68398731        1.61374228
       79.41780       65.70551751        1.29939572
       79.51750       67.31316279        1.33645892
       79.61719       65.31134178        1.32021753
       79.71689       64.89431568        1.36629499
       79.81658       64.70338872        1.44619317
       79.91627       64.25408039        1.22158409
       80.01597       62.41258289        1.23740700
       80.11566       64.21235617        1.31214072
       80.21535       62.63806951        1.38523890
       80.31505       62.91859821        1.65041564
       80.41474       64.39573586        1.28307205
       80.51443       69.83029270        1.33051758
       80.61413       69.97485671        1.37606302
       80.71382       79.11076736        1.51402808
       80.81351       85.29445077        1.76686373
       80.91321       90.75503492        1.34417156
       81.01290      107.83533004        1.58247505
       81.11259      124.01588177        1.83238538
       81.21229      141.07004395        2.11464685
       81.31198      156.98724525        2.48924464
       81.41167      172.45422539        2.04325027
       81.51137      199.76005845        2.26365051
       81.61106      217.07221439        2.46470813
       81.71075      228.08796609        2.61520025
       81.81045      236.40066405        2.82088134
       81.91014      257.21214135        2.26349955
       82.00983      269.62945764        2.47747864
       82.10953      283.40129116        2.84226462
       82.20922      292.60896599        3.21257661
       82.30891      293.83540183        3.37555536
       82.40861      293.42552898        2.74296525
       82.50830      286.85998339        2.70447800
       82.60799      288.87599036        2.92372433
       82.70769      281.92944741        3.14256290
       82.80738      286.83568531        3.02915362
       82.90707      282.35541276        2.44024968
       83.00677      277.78414725        2.57892032
       83.10646      262.23286953        2.94723849
       83.20615      246.17740395        3.17735181
       83.30585      238.66337045        2.96359619
       83.40554      219.20467883        2.36042747
       83.50524      211.86704380        2.26450809
       83.60493      187.70436156        2.34692080
       83.70462      174.87898840        2.55394481
       83.80432      157.57713807        2.11788911
       83.90401      134.51368131        1.64062945
       84.00370      113.98717873        1.57451669
       84.10340       94.49543079        1.71225354
       84.20309       83.69790509        1.95582601
       84.30278       81.52147833        1.56980853
       84.40248       74.65230117        1.32556239
       84.50217       70.70495029        1.26544292
       84.60186       66.05795699        1.38286520
       84.70156       67.77374332        1.83306386
       84.80125       66.52339151        1.26432900
       84.90094       65.73343600        1.12897447
       85.00064       64.34750139        1.15079693
       85.10033       66.68339005        1.38655319
       85.20002       67.57075368        2.39392398
       85.29972       64.81141222        1.23663681
       85.39941       65.81477026        1.27057516
       85.49910       67.50935210        1.25148171
       85.59880       65.55904217        1.38667489
       85.69849       69.48991396        2.56346604
       85.79818       65.49504892        1.17316425
       85.89788       65.31893519        1.14358597
       85.99757       62.91623833        1.15312617
       86.09726       62.36831707        1.31815615
       86.19696       62.80300460        2.54056527
       86.29665       62.70189184        1.20129451
       86.39634       60.39588720        1.19936160
       86.49604       59.93179429        1.17665710
       86.59573       57.47890802        1.22768230
       86.69542       58.03396343        2.57924907
       86.79512       55.48186532        1.04676942
       86.89481       54.15356032        1.01954226
       86.99451       53.35966322        1.04899512
       87.09420       51.79708838        1.15259424
       87.19389       58.93117071        2.91292989
       87.29359       52.62987039        1.11538582
       87.39328       52.05996685        1.12429558
       87.49297       50.48980573        1.07479007
       87.59267       50.58595153        1.09697166
       87.69236       50.77151483        3.28849727
       87.79205       49.80104144        1.01453459
       87.89175       50.14757337        1.00987428
       87.99144       49.68941075        1.04746803
       88.09113       52.41205814        1.14353716
       88.19083       48.97487605        5.84879689
       88.29052       48.85260919        1.11084183
       88.39021       47.99506095        1.10835456
       88.48991       48.70735669        1.07159787
       88.58960       48.89355703        1.03973839
       88.68929       29.51204598        6.25340099
       88.78899       50.57930408        1.02080638
       88.88868       49.39080057        0.98666914
       88.98837       50.14466225        1.03405671
       89.08807       50.57326480        1.06369057
       89.18776       42.02021936        7.88667283
       89.28745       49.69074993        1.07121673
       89.38715       52.27459264        1.11010095
       89.48684       53.17216407        1.09566944
       89.58653       55.89942245        1.10069778
       89.68623       48.56789197        8.31527153
       89.78592       60.15872031        1.10968695
       89.88561       61.84098642        1.10307093
       89.98531       64.02453179        1.15095992
       90.08500       71.46973091        1.26152116
       90.18469       61.41927859        9.74997825
       90.28439       73.15455143        1.30355181
       90.38408       80.76290525        1.39299487
       90.48377       85.26804061        1.40463098
       90.58347       90.78424345        1.42681124
       90.68316       88.98583110       11.00279007
       90.78286       92.22089906        1.37660596
       90.88255       93.09363902        1.34584279
       90.98224       98.30731956        1.43116856
       91.08194      100.17126750        1.49216674
       91.18163      120.69530091       13.07947103
       91.28132       98.01690277        1.51960472
       91.38102      100.73966584        1.58160194
       91.48071       97.63442394        1.51866403
       91.58040       92.34105831        1.42810830
       91.68010       96.02366082       11.01887087
       91.77979       88.65499088        1.34312207
       91.87948       83.32449548        1.28177427
       91.97918       80.74301375        1.31010743
       92.07887       79.46013028        1.35377313
       92.17856       72.96442644        9.86132049
       92.27826       76.38906251        1.37074022
       92.37795       75.20456519        1.39227759
       92.47764       72.57113633        1.29822271
       92.57734       77.88114783        1.30491497
       92.67703       73.66055656        8.23659765
       92.77672       80.44211118        1.27829867
       92.87642       83.37227490        1.27665140
       92.97611       86.90101478        1.36116532
       93.07580       89.47049980        1.57646321
       93.17550       83.15242932        2.85715607
       93.27519       92.10160814        1.47440799
       93.37488       94.15524892        1.44922381
       93.47458       99.06013215        1.50309429
       93.57427      100.95878203        1.75445555
       93.67396      100.12791746        2.36115195
       93.77366       98.37661803        1.44975472
       93.87335       98.68254696        1.38696572
       93.97304       95.01719925        1.41811783
       94.07274       92.75505289        1.81894629
       94.17243       85.22736868        1.98892809
       94.27212       90.84925619        1.52976602
       94.37182       91.81005565        1.49882174
       94.47151       90.32517544        1.42365837
       94.57121       89.59785937        1.87126620
       94.67090       87.06059102        1.86577677
       94.77059       87.13657319        1.45103930
       94.87029       80.01547220        1.26410639
       94.96998       76.50907486        1.25160895
       95.06967       70.58134312        1.38553130
       95.16937       68.96304166        1.87468421
       95.26906       67.46707419        1.43237397
       95.36875       64.56618608        1.27135601
       95.46845       63.09077330        1.20772711
       95.56814       60.89511572        1.36522262
       95.66783       60.72742510        1.53164352
       95.76753       58.72322239        1.24454792
       95.86722       54.95541593        1.02397434
       95.96691       54.31387876        1.05587832
       96.06661       54.06664661        1.34950839
       96.16630       52.23393785        1.41442061
       96.26599       52.36259767        1.27181096
       96.36569       51.19446141        1.12832253
       96.46538       49.81051513        1.07405922
       96.56507       47.33558022        1.29220304
       96.66477       46.14105283        1.24311800
       96.76446       47.74953603        1.13013386
       96.86415       47.99150193        0.98140090
       96.96385       48.12217662        1.01501748
       97.06354       48.62232271        1.37964978
       97.16323       47.57800708        1.30487200
       97.26293       47.04543978        1.21902340
       97.36262       48.85472169        1.15042982
       97.46231       45.40464383        1.02019633
       97.56201       49.42844005        1.35442069
       97.66170       51.69577029        1.24421114
       97.76139       52.82451841        1.14267007
       97.86109       52.37598991        1.02884604
       97.96078       53.71263606        1.06470093
       98.06047       55.44480521        1.50259750
       98.16017       57.29052004        1.35789274
       98.25986       55.96246280        1.28184772
       98.35956       59.40193965        1.24696484
       98.45925       60.79071691        1.17749683
       98.55894       62.60307129        1.55882086
       98.65864       66.18612196        1.37540344
       98.75833       68.60566240        1.30851901
       98.85802       71.09271747        1.24384244
       98.95772       72.00718136        1.24350055
       99.05741       71.04750896        1.71468318
       99.15710       73.24191399        1.49733739
       99.25680       76.69017248        1.48456835
       99.35649       76.26461098        1.40998680
       99.45618       80.86023102        1.35320779
       99.55588       85.26297317        1.85699331
       99.65557       83.50293327        1.51600853
       99.75526       86.49803041        1.44631557
       99.85496       85.31815031        1.36709314
       99.95465       85.74814586        1.34366399
      100.05434       87.33589989        1.93190386
      100.15404       86.55745055        1.61991743
      100.25373       82.83918669        1.56555866
      100.35342       84.03221990        1.57069481
      100.45312       82.53608833        1.42037019
      100.55281       87.18815225        1.91769412
      100.65250       84.86467722        1.54118708
      100.75220       82.91418298        1.41097736
      100.85189       77.79151827        1.30564585
      100.95158       77.28614427        1.26660466
      101.05128       83.14605359        1.87339247
      101.15097       76.65902030        1.48635250
      101.25066       76.52128243        1.46720648
      101.35036       75.96451309        1.47450293
      101.45005       78.63354682        1.41084994
      101.54974       73.81097331        1.70223386
      101.64944       73.62876939        1.38708666
      101.74913       74.75585712        1.31695252
      101.84882       78.60105985        1.31468183
      101.94852       79.63714462        1.39398917
      102.04821       77.39995598        1.65513499
      102.14791       79.95250989        1.51618941
      102.24760       76.32302602        1.46867825
      102.34729       80.73276570        1.50457924
      102.44699       79.08751805        1.51497303
      102.54668       82.03891067        1.61924984
      102.64637       81.77451142        1.44384284
      102.74607       84.62128917        1.39893970
      102.84576       87.47084909        1.39543096
      102.94545       87.28365337        1.58761431
      103.04515       83.99301243        1.64851357
      103.14484       86.36860982        1.56197479
      103.24453       86.22716202        1.53660931
      103.34423       81.77996706        1.48411374
      103.44392       87.03278094        1.65876792
      103.54361       89.34374181        1.63279147
      103.64331       86.10626050        1.45893213
      103.74300       85.99187892        1.39069472
      103.84269       84.23142104        1.35247606
      103.94239       85.72275085        1.63970793
      104.04208       81.84297602        1.54978960
      104.14177       84.06637366        1.52826998
      104.24147       83.94530607        1.52638590
      104.34116       80.26102131        1.50158602
      104.44085       83.39149292        1.73856938
      104.54055       79.60163507        1.53769539
      104.64024       80.33580161        1.45211289
      104.73993       75.94484549        1.34708945
      104.83963       73.74908831        1.27883694
      104.93932       72.83549431        1.54064568
      105.03901       71.06514774        1.43383003
      105.13871       69.69503397        1.36716494
      105.23840       71.75823329        1.38655756
      105.33809       69.50860133        1.37259724
      105.43779       67.09284132        1.56894090
      105.53748       67.25489686        1.40871728
      105.63717       65.71692979        1.27633623
      105.73687       64.62506214        1.20448987
      105.83656       62.32186399        1.15248442
      105.93626       62.94065659        1.46774951
      106.03595       60.41325064        1.30316303
      106.13564       59.16378776        1.24638123
      106.23534       57.03057566        1.23868112
      106.33503       55.23997498        1.23131848
      106.43472       55.36963175        1.45741369
      106.53442       53.12484190        1.24160464
      106.63411       53.13953688        1.12803162
      106.73380       53.98368311        1.08365840
      106.83350       55.02561999        1.07777172
      106.93319       54.74223886        1.39351841
      107.03288       57.27418994        1.26340664
      107.13258       56.25005040        1.21525401
      107.23227       55.88860213        1.22890797
      107.33196       57.17062853        1.23956739
      107.43166       57.82356578        1.49790905
      107.53135       58.59100667        1.30097733
      107.63104       57.70238846        1.17556560
      107.73074       58.97702035        1.14029046
      107.83043       60.71826048        1.14244582
      107.93012       62.43073567        1.53256094
      108.02982       61.69180850        1.33339161
      108.12951       62.15237532        1.27274578
      108.22920       62.28711974        1.25370060
      108.32890       66.23177804        1.28064206
      108.42859       67.33842027        1.63891971
      108.52828       66.12112139        1.37752900
      108.62798       67.48217194        1.26193336
      108.72767       68.28801791        1.21849175
      108.82736       67.52851238        1.23836205
      108.92706       66.90638403        1.56110109
      109.02675       67.11689584        1.36785868
      109.12644       65.30691863        1.31684044
      109.22614       66.21455660        1.32704540
      109.32583       63.83170001        1.41968973
      109.42552       64.26971438        1.50265931
      109.52522       64.32791025        1.35631042
      109.62491       65.72750869        1.30410306
      109.72461       63.34654050        1.22390344
      109.82430       61.80037828        1.12918678
      109.92399       61.13597859        1.46020549
      110.02369       60.95604173        1.27682164
      110.12338       62.13117377        1.28072401
      110.22307       59.99275869        1.24897886
      110.32277       59.67309730        1.27199336
      110.42246       56.77038675        1.50835968
      110.52215       59.34637788        1.30630792
      110.62185       57.12525023        1.20778730
      110.72154       55.86883187        1.11429798
      110.82123       54.30132449        1.13448344
      110.92093       55.99636637        1.34375117
      111.02062       56.14064307        1.24303467
      111.12031       57.01880043        1.26211137
      111.22001       56.34395443        1.23108788
      111.31970       56.37692886        1.33646299
      111.41939       57.32000036        1.39449447
      111.51909       59.03454710        1.28419584
      111.61878       59.77165916        1.21729539
      111.71847       61.88935297        1.15252827
      111.81817       65.42248673        1.28626685
      111.91786       65.06943696        1.34996217
      112.01755       69.73555898        1.36482941
      112.11725       70.38218813        1.38155887
      112.21694       73.68263715        1.40739566
      112.31663       75.28615494        1.56775315
      112.41633       75.56350652        1.54299246
      112.51602       75.51825874        1.42047735
      112.61571       80.11705976        1.39590025
      112.71541       84.86937185        1.35415873
      112.81510       83.16787440        1.50299329
      112.91479       87.22354511        1.56813704
      113.01449       88.10823750        1.54341606
      113.11418       91.59740633        1.56861211
      113.21387       92.59659521        1.57002498
      113.31357       89.01579927        1.70937278
      113.41326       94.74853968        1.67632885
      113.51296       92.38751111        1.55693984
      113.61265       95.44586568        1.52711788
      113.71234       93.72015614        1.44532673
      113.81204       92.97091846        1.64914460
      113.91173       89.31915139        1.56615267
      114.01142       87.74430562        1.53656405
      114.11112       89.97738446        1.55529066
      114.21081       89.68010131        1.56393381
      114.31050       86.36735553        1.74029485
      114.41020       92.04096843        1.66043968
      114.50989       84.66499718        1.49047205
      114.60958       88.76591344        1.47708422
      114.70928       83.66088905        1.38279610
      114.80897       85.74556884        1.58788194
      114.90866       86.37040077        1.50317383
      115.00836       85.45179209        1.48812231
      115.10805       83.82991985        1.48187617
      115.20774       88.15035056        1.54281301
      115.30744       86.38826957        1.75352866
      115.40713       83.48117162        1.56116291
      115.50682       91.12735688        1.54028984
      115.60652       91.40576810        1.48676823
      115.70621       89.67063561        1.41517796
      115.80590       90.38229828        1.65749952
      115.90560       92.73509455        1.52185588
      116.00529       94.02256786        1.54955149
      116.10498       97.61911505        1.59560887
      116.20468      102.82160048        1.67547846
      116.30437      102.82035897        1.99726092
      116.40406       99.30946767        1.70936278
      116.50376      102.35011140        1.64005639
      116.60345      103.05279506        1.57976319
      116.70314      106.23637319        1.55549335
      116.80284      116.70108485        1.93782737
      116.90253      121.62974109        1.77991001
      117.00222      124.98343399        1.79022096
      117.10192      123.19804400        1.82489517
      117.20161      126.53249049        1.87215918
      117.30131      129.41470172        2.26586555
      117.40100      133.48147315        1.93489004
      117.50069      137.61018948        1.86615526
      117.60039      141.15210421        1.80897912
      117.70008      150.31367760        1.80905683
      117.79977      152.13260023        2.23032454
      117.89947      152.78756716        1.94310104
      117.99916      161.42721875        2.02171152
      118.09885      161.28944579        2.05872842
      118.19855      164.28133347        2.17642152
      118.29824      167.33252814        2.40824111
      118.39793      167.13643610        2.18519946
      118.49763      174.32580283        2.10643828
      118.59732      176.73361261        2.04789159
      118.69701      180.48162935        2.15615824
      118.79671      178.05107283        2.31222549
      118.89640      174.62918733        2.13474229
      118.99609      176.94150976        2.14670327
      119.09579      173.41282309        2.14969618
      119.19548      177.01589212        2.37346516
      119.29517      175.38141749        2.45430020
      119.39487      179.57118900        2.28327665
      119.49456      174.70164994        2.12194713
      119.59425      169.52741918        2.02963302
      119.69395      166.28374806        2.12046117
      119.79364      162.35549842        2.11723563
      119.89333      154.34291857        1.99733894
      119.99303      150.89964877        1.92800656
      120.09272      152.81165709        1.98453406
      120.19241      146.06179799        2.18031908
      120.29211      144.51106873        2.14648480
      120.39180      135.63619542        1.98334539
      120.49149      137.05183729        1.85430392
      120.59119      127.46834929        1.73515635
      120.69088      128.87264718        1.87825813
      120.79057      122.88840358        1.79438085
      120.89027      118.54747933        1.73000625
      120.98996      118.28566281        1.71479820
      121.08966      118.69717502        1.73066279
      121.18935      119.25302192        1.98846612
      121.28904      120.63217207        1.94932685
      121.38874      121.83703277        1.85262962
      121.48843      116.13917048        1.70807721
      121.58812      114.10222946        1.61461056
      121.68782      114.31295280        1.79037868
      121.78751      115.60659575        1.71576231
      121.88720      114.30741360        1.68420437
      121.98690      111.23787317        1.67370565
      122.08659      112.77911859        1.71910253
      122.18628      110.10527577        1.97029339
      122.28598      108.88252642        1.84244733
      122.38567      107.76555731        1.75543192
      122.48536      107.85523098        1.66121755
      122.58506      107.76479154        1.57268329
      122.68475      111.78656003        1.81533981
      122.78444      106.65924676        1.66938106
      122.88414      107.57692825        1.66236916
      122.98383      106.56628727        1.68838365
      123.08352      106.03122520        1.66970749
      123.18322      106.28477528        1.94975183
      123.28291      102.28453894        1.73811632
      123.38260      103.11202676        1.68473911
      123.48230      102.44472029        1.61847213
      123.58199      101.05311438        1.50235947
      123.68168      100.58930841        1.71038138
      123.78138       97.09409497        1.51588227
      123.88107       93.31543912        1.45153989
      123.98076       93.66705388        1.48119226
      124.08046       89.61595873        1.43333875
      124.18015       90.21902360        1.62782500
      124.27984       90.82603121        1.46335399
      124.37954       88.49665255        1.36293381
      124.47923       83.32047011        1.29083486
      124.57893       79.57957197        1.34384855
