        5.04651       59.26884036        2.62515957
        5.14621       57.55079245        2.49291353
        5.24590       55.68194714        2.41678031
        5.34559       56.56186274        2.23409995
        5.44529       49.41719610        2.27124029
        5.54498       50.94209209        1.93987446
        5.64467       51.62435399        1.93579962
        5.74437       53.10559041        1.77240666
        5.84406       48.22302809        1.70893342
        5.94375       49.34308827        1.72641703
        6.04345       53.99925075        1.75519044
        6.14314       50.59144387        1.55535081
        6.24283       48.54174311        1.57369609
        6.34253       52.25766145        1.55757708
        6.44222       53.20641908        1.65494890
        6.54191       52.08077158        1.55107507
        6.64161       50.83054888        1.45158524
        6.74130       50.58450895        1.45390428
        6.84099       50.49945632        1.44215950
        6.94069       48.57417739        1.43560198
        7.04038       50.14809308        1.34653706
        7.14007       50.14239641        1.34366868
        7.23977       51.41712675        1.33691199
        7.33946       51.17230248        1.35412930
        7.43915       51.39482841        1.33937277
        7.53885       47.88345568        1.26879929
        7.63854       48.68847819        1.22287597
        7.73823       48.69338915        1.26984908
        7.83793       48.57962219        1.22740645
        7.93762       48.69495604        1.28188584
        8.03732       48.20810970        1.14384792
        8.13701       50.32195317        1.16346817
        8.23670       51.24866803        1.19073888
        8.33640       48.85999265        1.16287929
        8.43609       49.59360115        1.22486668
        8.53578       49.32920490        1.13783593
        8.63548       47.79713483        1.10709401
        8.73517       49.29616271        1.10294985
        8.83486       49.29087063        1.10557625
        8.93456       49.04734375        1.09716810
        9.03425       49.82348216        1.07346282
        9.13394       49.44778414        1.07140709
        9.23364       48.67274089        1.07846848
        9.33333       49.12770116        1.10557502
        9.43302       45.94348710        1.06942367
        9.53272       48.34157620        1.06000630
        9.63241       48.63269661        1.09325593
        9.73210       49.08002481        1.09608821
        9.83180       48.32081387        1.13321774
        9.93149       49.42740923        1.13796063
       10.03118       50.47904973        1.10656345
       10.13088       49.27052953        1.06699544
       10.23057       50.89327163        1.13567779
       10.33026       47.85973233        1.13826970
       10.42996       49.45783374        1.14132797
       10.52965       49.86803594        1.10991284
       10.62934       50.52625118        1.11992393
       10.72904       49.17221790        1.12110182
       10.82873       48.56205950        1.10848635
       10.92842       50.97257156        1.15479854
       11.02812       51.91315025        1.11033034
       11.12781       52.48903880        1.15654326
       11.22750       49.04679986        1.12897832
       11.32720       53.29349154        1.20867481
       11.42689       51.48613660        1.14671245
       11.52658       57.00005485        1.19240685
       11.62628       58.13013985        1.21728334
       11.72597       57.44892483        1.23580299
       11.82567       58.41898405        1.28089083
       11.92536       61.03490237        1.22533874
       12.02505       66.20532401        1.28235980
       12.12475       69.93037859        1.31691594
       12.22444       75.36964777        1.44997642
       12.32413       84.66638197        1.56066735
       12.42383       91.85264720        1.54317111
       12.52352      104.90030886        1.63944884
       12.62321      122.07102910        1.81940906
       12.72291      144.09700620        1.92440509
       12.82260      163.88998797        2.23158745
       12.92229      181.76586763        2.13486993
       13.02199      207.33675264        2.26282253
       13.12168      235.63204364        2.45504474
       13.22137      269.81283792        2.71356925
       13.32107      297.82128693        2.94348338
       13.42076      325.43153101        2.96258022
       13.52045      347.80798686        3.10028771
       13.62015      353.61354706        3.02973956
       13.71984      345.45689056        3.12104787
       13.81953      314.33136281        3.02648429
       13.91923      280.23369494        2.68385718
       14.01892      224.71474262        2.33887780
       14.11861      172.09701958        2.13453252
       14.21831      136.46079261        1.90209276
       14.31800      109.67268912        1.79471719
       14.41769       84.07829520        1.51273795
       14.51739       72.87563828        1.37389163
       14.61708       63.41777497        1.28466486
       14.71677       55.37876698        1.21984023
       14.81647       52.64807510        1.24590144
       14.91616       50.25360695        1.11931893
       15.01585       49.17738892        1.12719433
       15.11555       50.86805313        1.15976402
       15.21524       46.44899839        1.14203739
       15.31493       48.75869235        1.19840120
       15.41463       50.00827622        1.17515047
       15.51432       50.78392151        1.14756724
       15.61402       48.82055883        1.15357740
       15.71371       47.21592919        1.12660496
       15.81340       47.50628855        1.17560927
       15.91310       47.07384413        1.13706000
       16.01279       48.43832767        1.10444301
       16.11248       49.63291400        1.14804931
       16.21218       50.22347178        1.18688754
       16.31187       48.14849420        1.16486720
       16.41156       47.40968266        1.13434256
       16.51126       47.61046536        1.15597072
       16.61095       49.80016365        1.14005154
       16.71064       48.65099129        1.16239956
       16.81034       52.06277633        1.20625121
       16.91003       51.19220712        1.16159237
       17.00972       53.01156187        1.13483736
       17.10942       58.58060293        1.26112690
       17.20911       60.14816697        1.28922936
       17.30880       65.46969906        1.35696028
       17.40850       69.35970313        1.39652353
       17.50819       74.37785475        1.40445051
       17.60788       76.21088455        1.46587349
       17.70758       79.41542122        1.50270848
       17.80727       75.66107515        1.48467154
       17.90696       72.07225053        1.35464815
       18.00666       71.13274737        1.36938471
       18.10635       63.78176056        1.26095625
       18.20604       60.43111828        1.34633218
       18.30574       57.95567988        1.25648851
       18.40543       57.08881859        1.21616927
       18.50512       55.96295877        1.24207251
       18.60482       52.31619457        1.18193529
       18.70451       54.60164325        1.27611557
       18.80420       50.96669149        1.15808097
       18.90390       51.99396707        1.15724907
       19.00359       49.60498655        1.10071025
       19.10328       48.98527260        1.15721629
       19.20298       49.11814192        1.19484747
       19.30267       48.74463695        1.14305016
       19.40237       48.04662884        1.12196519
       19.50206       46.26369095        1.12856025
       19.60175       46.71800996        1.12138936
       19.70145       45.64011100        1.16219233
       19.80114       45.56404006        1.10134774
       19.90083       48.18900292        1.09445294
       20.00053       48.71353637        1.11993901
       20.10022       44.84564477        1.08239081
       20.19991       47.73935610        1.19406908
       20.29961       49.82721246        1.15594742
       20.39930       49.68791925        1.18919589
       20.49899       50.04691091        1.17276461
       20.59869       51.31104009        1.20924907
       20.69838       51.96437125        1.26182761
       20.79807       52.25025819        1.20684925
       20.89777       53.70287350        1.19589166
       20.99746       55.00134394        1.22235239
       21.09715       56.88530330        1.30947889
       21.19685       59.19623134        1.32895820
       21.29654       59.44777624        1.29915417
       21.39623       60.75240663        1.31346149
       21.49593       55.62056606        1.23857614
       21.59562       54.46577363        1.25511402
       21.69531       51.38304127        1.26786389
       21.79501       50.88903583        1.15423384
       21.89470       45.69082746        1.06888918
       21.99439       46.49521883        1.12400461
       22.09409       45.87328808        1.11920382
       22.19378       45.20731215        1.17989711
       22.29347       47.33000218        1.12447770
       22.39317       46.81425210        1.14728466
       22.49286       45.90119758        1.13509681
       22.59255       46.88737135        1.16075527
       22.69225       47.62230432        1.23278659
       22.79194       46.71805160        1.09656047
       22.89163       52.41559164        1.13902229
       22.99133       55.93945578        1.20946826
       23.09102       56.33511047        1.26053612
       23.19072       60.47627959        1.30931690
       23.29041       63.45164250        1.32457903
       23.39010       60.67349484        1.30869826
       23.48980       62.07049502        1.32854991
       23.58949       58.48515618        1.30673785
       23.68918       57.25277075        1.35950474
       23.78888       54.93330227        1.18669685
       23.88857       52.03858538        1.17000206
       23.98826       47.34781496        1.14076518
       24.08796       47.28769730        1.11782592
       24.18765       46.26021138        1.18463156
       24.28734       43.96972759        1.09951953
       24.38704       45.70589349        1.13982275
       24.48673       44.27989963        1.11783269
       24.58642       45.90492801        1.17588648
       24.68612       44.64167628        1.15801037
       24.78581       44.91811051        1.07079960
       24.88550       45.56609341        1.07808049
       24.98520       45.66056946        1.11912094
       25.08489       45.88233081        1.14424406
       25.18458       46.75206396        1.17933728
       25.28428       47.16857424        1.14173865
       25.38397       47.94909539        1.14558608
       25.48366       51.16931871        1.19064406
       25.58336       55.75100300        1.29558165
       25.68305       61.33997601        1.33308333
       25.78274       68.69033975        1.33168892
       25.88244       83.37608903        1.50474779
       25.98213      104.76932714        1.70139360
       26.08182      130.99172251        1.95343095
       26.18152      151.63819251        2.15323283
       26.28121      180.85009421        2.22561283
       26.38090      197.61379372        2.34679953
       26.48060      201.77619116        2.43706437
       26.58029      187.33190756        2.44893790
       26.67998      168.54283601        2.19329663
       26.77968      139.88157535        1.97340112
       26.87937      110.02225546        1.72415812
       26.97907       89.21702284        1.53910147
       27.07876       81.98281868        1.58852590
       27.17845       76.48697006        1.46609829
       27.27815       78.87804413        1.45406334
       27.37784       81.84400966        1.53898090
       27.47753       84.04825669        1.53662969
       27.57723       86.31853061        1.63142388
       27.67692       81.60265184        1.54805691
       27.77661       77.13103873        1.43634995
       27.87631       73.97034421        1.38319932
       27.97600       62.99866764        1.30487689
       28.07569       58.92793569        1.33557235
       28.17539       52.77773896        1.20979671
       28.27508       50.40116034        1.18268288
       28.37477       50.55045894        1.21263296
       28.47447       48.86773794        1.18289719
       28.57416       51.34316836        1.31095929
       28.67385       51.92112054        1.17290365
       28.77355       54.82870553        1.18366238
       28.87324       56.96882678        1.23876300
       28.97293       62.04708406        1.29604144
       29.07263       58.61523779        1.37295778
       29.17232       57.58115206        1.24179771
       29.27201       60.12535024        1.29250072
       29.37171       54.89159919        1.27019470
       29.47140       51.37591964        1.21452056
       29.57109       50.22852270        1.27337116
       29.67079       48.37106798        1.13755640
       29.77048       49.72435728        1.15609094
       29.87017       43.60077025        1.06108914
       29.96987       47.33259152        1.15937037
       30.06956       48.07152611        1.20543389
       30.16925       48.93467428        1.14516921
       30.26895       48.03502807        1.13889174
       30.36864       47.83270000        1.15505447
       30.46833       50.73155130        1.20171463
       30.56803       52.63716091        1.29311304
       30.66772       55.09485302        1.23120575
       30.76742       59.15216542        1.25036137
       30.86711       63.21868861        1.31855879
       30.96680       63.76885259        1.33195525
       31.06650       60.71114347        1.36258379
       31.16619       58.86278128        1.26142522
       31.26588       62.34084230        1.29052571
       31.36558       58.13396032        1.26236050
       31.46527       59.73571569        1.33155038
       31.56496       58.00762841        1.33313563
       31.66466       64.78398115        1.31784264
       31.76435       71.29626510        1.38133363
       31.86404       80.78045246        1.45141406
       31.96374       86.37299099        1.53584908
       32.06343       86.67939608        1.59216927
       32.16312       85.25313596        1.48387288
       32.26282       83.30671996        1.50263576
       32.36251       76.98773105        1.50207082
       32.46220       69.95718688        1.45724339
       32.56190       69.43107880        1.47753262
       32.66159       60.68867380        1.31144812
       32.76128       62.57813109        1.30192652
       32.86098       61.44175651        1.30937629
       32.96067       56.60575003        1.27232131
       33.06036       58.98751911        1.32262433
       33.16006       60.18817843        1.25825821
       33.25975       53.71869024        1.22705103
       33.35944       55.78665249        1.25731470
       33.45914       57.08207553        1.32026517
       33.55883       58.30716917        1.33753678
       33.65852       60.51812623        1.27074994
       33.75822       66.37155175        1.32870159
       33.85791       73.85679732        1.40760126
       33.95760       80.88531785        1.51677989
       34.05730       94.70515864        1.62587032
       34.15699      105.99435016        1.69305543
       34.25668      118.55831086        1.78463516
       34.35638      142.43604542        2.00738652
       34.45607      186.00511299        2.41781690
       34.55577      227.39923156        2.54849011
       34.65546      293.88781823        2.78053115
       34.75515      365.61547269        3.16228335
       34.85485      426.81629606        3.39264013
       34.95454      449.45722489        3.59144530
       35.05423      441.32803576        3.68078819
       35.15393      395.92994398        3.27269216
       35.25362      318.42147140        2.97820629
       35.35331      245.01503898        2.67858926
       35.45301      177.56361617        2.37736327
       35.55270      134.87803140        2.01658081
       35.65239      104.00383519        1.70955244
       35.75209       86.97074420        1.55145367
       35.85178       77.66804679        1.46387167
       35.95147       72.88580743        1.45131827
       36.05117       69.56862529        1.38861581
       36.15086       64.22921536        1.28273423
       36.25055       61.28755202        1.30899757
       36.35025       61.06451772        1.33220917
       36.44994       58.83095228        1.33366278
       36.54963       58.08608801        1.27210201
       36.64933       55.51033963        1.22491205
       36.74902       55.17735634        1.23398081
       36.84871       52.08429835        1.19011720
       36.94841       52.08375885        1.28703399
       37.04810       51.93880373        1.13325367
       37.14779       51.43191025        1.15081419
       37.24749       48.11734046        1.14394433
       37.34718       50.85016683        1.20609561
       37.44687       49.52849719        1.27857789
       37.54657       49.23711978        1.16380729
       37.64626       49.16146138        1.15845072
       37.74595       47.19809108        1.11725755
       37.84565       49.59133546        1.21186257
       37.94534       46.92380485        1.20080478
       38.04503       48.70588540        1.10580506
       38.14473       47.94842216        1.10789524
       38.24442       47.76596822        1.12598780
       38.34412       49.15238052        1.19422496
       38.44381       49.38520134        1.29437111
       38.54350       49.78112362        1.15844949
       38.64320       50.56965577        1.16408173
       38.74289       53.53636850        1.21353292
       38.84258       54.13952610        1.22332663
       38.94228       55.30953399        1.29695139
       39.04197       60.51566752        1.22349001
       39.14166       66.58460996        1.33530057
       39.24136       67.61077338        1.34194804
       39.34105       69.41123613        1.40718443
       39.44074       71.43980039        1.55727945
       39.54044       72.30885902        1.40090216
       39.64013       67.85439768        1.35271734
       39.73982       67.79549711        1.35761992
       39.83952       61.33404281        1.28230247
       39.93921       56.85460873        1.30886477
       40.03890       57.64308799        1.20640611
       40.13860       59.56795432        1.22488449
       40.23829       57.61639772        1.24718558
       40.33798       56.47761283        1.27323984
       40.43768       56.00944219        1.32660081
       40.53737       56.40062253        1.23556555
       40.63706       57.02978047        1.26855227
       40.73676       58.57876444        1.28369238
       40.83645       59.05545293        1.29968572
       40.93614       62.67323161        1.36150549
       41.03584       65.84135405        1.31338262
       41.13553       75.74354340        1.41065136
       41.23522       89.74810882        1.57331016
       41.33492      111.96789238        1.84044340
       41.43461      132.12746213        2.06398149
       41.53430      159.33856550        2.12365132
       41.63400      187.20776841        2.35327494
       41.73369      204.16720810        2.40445675
       41.83338      207.27077455        2.48727932
       41.93308      207.83916476        2.46847312
       42.03277      217.24356578        2.30721493
       42.13247      242.96205746        2.56565865
       42.23216      281.22843667        2.76619691
       42.33185      345.58699438        3.29391131
       42.43155      418.95887305        3.57612581
       42.53124      495.15737403        3.76741080
       42.63093      552.37693775        3.98910369
       42.73063      573.52401981        4.08374614
       42.83032      557.99238558        4.09876828
       42.93001      507.39271428        3.75909450
       43.02971      425.60068219        3.24956827
       43.12940      329.16489205        2.91271869
       43.22909      245.39605248        2.64104355
       43.32879      184.42386808        2.41048036
       43.42848      137.76492728        2.03644090
       43.52817      102.40229463        1.67899586
       43.62787       81.56980649        1.49307694
       43.72756       70.14906071        1.41712243
       43.82725       65.36356279        1.42829007
       43.92695       61.10610511        1.25218559
       44.02664       57.52927679        1.20905881
       44.12633       58.07478502        1.26009760
       44.22603       55.73643170        1.28481007
       44.32572       57.19927982        1.37186687
       44.42541       55.95510576        1.29541279
       44.52511       54.59085175        1.24504790
       44.62480       58.11454456        1.30292267
       44.72449       59.30688647        1.27557230
       44.82419       58.61857264        1.42294071
       44.92388       66.13250211        1.26079437
       45.02357       73.12889377        1.33687272
       45.12327       87.37594537        1.50565909
       45.22296       97.74873413        1.63460696
       45.32265      122.39106032        2.02431555
       45.42235      140.05122885        1.97202476
       45.52204      171.40072230        2.16085305
       45.62174      205.95244568        2.41328281
       45.72143      235.67215336        2.58298893
       45.82112      255.61749524        2.94619775
       45.92082      261.77665381        2.53155921
       46.02051      256.72587533        2.56020242
       46.12020      247.25809649        2.52028933
       46.21990      217.50276779        2.48200540
       46.31959      190.64728454        2.50780124
       46.41928      168.83534207        2.17895888
       46.51898      132.57115745        1.94001014
       46.61867      108.06014172        1.74193221
       46.71836       88.91098147        1.62010729
       46.81806       72.09046241        1.51210394
       46.91775       62.84700195        1.23040810
       47.01744       61.11964207        1.24230524
       47.11714       62.86277998        1.28874837
       47.21683       65.56754225        1.35500466
       47.31652       74.53049109        1.57640556
       47.41622       81.83920167        1.55688156
       47.51591       98.80838485        1.71445768
       47.61560      113.89063391        1.82567281
       47.71530      132.46467923        1.99082065
       47.81499      147.04741496        2.15078069
       47.91468      167.02228090        2.00607366
       48.01438      181.55986156        2.09313727
       48.11407      186.52779654        2.20114270
       48.21376      187.03827618        2.30134418
       48.31346      170.27178838        2.27288721
       48.41315      158.03895123        2.04060222
       48.51284      139.72658936        1.98189168
       48.61254      117.43058003        1.80869426
       48.71223       95.55245465        1.66037363
       48.81192       86.49255653        1.57583274
       48.91162       69.86695294        1.26913760
       49.01131       60.84762431        1.22567302
       49.11100       56.75227190        1.22625054
       49.21070       53.61148277        1.25117635
       49.31039       53.34958167        1.28453903
       49.41009       50.28719282        1.17802199
       49.50978       49.15003963        1.18867826
       49.60947       48.63467246        1.19106389
       49.70917       48.31833143        1.23119097
       49.80886       50.52706125        1.22543045
       49.90855       48.24358953        1.09068482
       50.00825       48.72399585        1.11927230
       50.10794       50.61536327        1.16682974
       50.20763       50.77171911        1.22095523
       50.30733       52.19788321        1.29683921
       50.40702       54.21675844        1.23951561
       50.50671       56.14741236        1.26518243
       50.60641       56.01435684        1.26546652
       50.70610       55.38038048        1.29469968
       50.80579       57.92343731        1.30673617
       50.90549       55.44072346        1.15250742
       51.00518       53.96165671        1.14705103
       51.10487       57.08427345        1.21965537
       51.20457       54.91933942        1.27347575
       51.30426       54.20619314        1.25856760
       51.40395       57.52547375        1.24309093
       51.50365       57.97570301        1.26221901
       51.60334       58.74032389        1.29564170
       51.70303       60.76935336        1.39956051
       51.80273       60.60626249        1.28204393
       51.90242       61.35855446        1.20526936
       52.00211       62.17402236        1.21902449
       52.10181       62.42075300        1.26011071
       52.20150       64.98936892        1.41611838
       52.30119       62.05122883        1.33281469
       52.40089       61.70349893        1.30824744
       52.50058       60.02067055        1.31458207
       52.60027       59.87041709        1.33086130
       52.69997       63.76486090        1.50540017
       52.79966       58.76594400        1.21479998
       52.89935       65.11775257        1.23413384
       52.99905       72.54675210        1.32420097
       53.09874       82.98346581        1.46229542
       53.19844       92.40925875        1.76740061
       53.29813      109.90943730        1.71368049
       53.39782      124.17851595        1.88490952
       53.49752      138.19795794        1.99811006
       53.59721      149.59284865        2.07778273
       53.69690      154.44916753        2.31673638
       53.79660      160.51575672        1.97875298
       53.89629      158.55369682        1.94528081
       53.99598      151.36313354        1.94674620
       54.09568      136.20796311        1.92768274
       54.19537      126.72608959        2.02746572
       54.29506      114.44752805        1.76956231
       54.39476      101.88689494        1.68204548
       54.49445       93.97082426        1.61623130
       54.59414       87.06252635        1.57908716
       54.69384       85.44200844        1.66877629
       54.79353       84.88789797        1.42638747
       54.89322       79.93134069        1.37892143
       54.99292       78.41470658        1.40572874
       55.09261       73.61944921        1.41627401
       55.19230       68.07887506        1.46232610
       55.29200       64.96913725        1.32949446
       55.39169       62.79034497        1.34853890
       55.49138       57.77510831        1.28856016
       55.59108       58.33804974        1.33638866
       55.69077       55.05469574        1.33219070
       55.79046       55.35750560        1.16792018
       55.89016       55.10848959        1.16249613
       55.98985       55.94641569        1.17884368
       56.08954       57.84597944        1.23826974
       56.18924       64.84103289        1.41516783
       56.28893       71.10209860        1.35652346
       56.38862       81.92266925        1.50660254
       56.48832       94.56510025        1.64706282
       56.58801      101.66049855        1.75734021
       56.68770      108.79982799        1.87666655
       56.78740      114.23518922        1.64598441
       56.88709      114.67970434        1.66567500
       56.98679      106.18513188        1.60384901
       57.08648       98.74617147        1.63928512
       57.18617       90.03230250        1.62043624
       57.28587       77.48369372        1.40407719
       57.38556       69.90836588        1.41946178
       57.48525       64.57988316        1.39032881
       57.58495       57.52971481        1.34203548
       57.68464       55.25121510        1.32658006
       57.78433       53.36916036        1.14048909
       57.88403       52.07267888        1.13963282
       57.98372       53.30011651        1.17139657
       58.08341       51.44416084        1.24422363
       58.18311       53.23946886        1.29485916
       58.28280       53.76915419        1.22568844
       58.38249       53.89883237        1.28227843
       58.48219       52.92203379        1.29799817
       58.58188       52.12674935        1.30226031
       58.68157       53.73166627        1.29567348
       58.78127       53.44265941        1.13026548
       58.88096       52.92851679        1.10819902
       58.98065       56.49899091        1.18871385
       59.08035       56.75173309        1.27126218
       59.18004       58.26412665        1.30671206
       59.27973       59.91476602        1.25027143
       59.37943       61.15916371        1.30487060
       59.47912       68.28044118        1.43559606
       59.57881       71.52981259        1.53941398
       59.67851       76.60539213        1.48546346
       59.77820       82.32857577        1.41585226
       59.87789       94.30318761        1.51045283
       59.97759      100.58808245        1.63208187
       60.07728      105.15548000        1.80727556
       60.17697      106.61105825        1.73357509
       60.27667      108.95309947        1.70398203
       60.37636      105.86278239        1.71203786
       60.47605      103.68975790        1.76752465
       60.57575       98.84824725        1.89109508
       60.67544       95.39060422        1.59591854
       60.77514       86.57377572        1.44504419
       60.87483       78.03294490        1.34499091
       60.97452       70.09075737        1.34259059
       61.07422       66.75922930        1.47182335
       61.17391       64.93397324        1.25732206
       61.27360       67.97865577        1.33228711
       61.37330       68.64721149        1.38850805
       61.47299       69.17477017        1.45511652
       61.57268       66.55665801        1.62296054
       61.67238       70.66203364        1.36313049
       61.77207       69.85925056        1.31998871
       61.87176       70.99853076        1.31593500
       61.97146       67.47020808        1.33167622
       62.07115       69.22604938        1.52780615
       62.17084       68.68701156        1.33330070
       62.27054       65.37508419        1.35612486
       62.37023       62.98740104        1.38404238
       62.46992       66.54331265        1.47151496
       62.56962       64.94206329        1.63263297
       62.66931       66.18175458        1.32778730
       62.76900       68.91390804        1.32071849
       62.86870       74.68008348        1.34508275
       62.96839       86.17652776        1.49152631
       63.06808       92.35881091        1.71863141
       63.16778       98.64933861        1.57694304
       63.26747      108.13927758        1.70901224
       63.36716      116.87583682        1.84427397
       63.46686      127.68283777        1.98611244
       63.56655      132.91800469        2.15309331
       63.66624      146.61528108        1.92278311
       63.76594      162.82049708        1.96914403
       63.86563      174.84637283        2.03487489
       63.96532      181.66802314        2.17076643
       64.06502      178.21235467        2.30297310
       64.16471      170.33867999        2.08207811
       64.26440      160.99902920        2.10674839
       64.36410      146.26221648        2.04784633
       64.46379      122.45939449        1.98037789
       64.56349      113.95966578        1.94413520
       64.66318       96.64719319        1.56636633
       64.76287       79.41637011        1.40175283
       64.86257       69.62996949        1.31024610
       64.96226       63.09322380        1.30621322
       65.06195       57.74480533        1.35102308
       65.16165       55.50322066        1.19476597
       65.26134       53.19043800        1.19689771
       65.36103       53.95376465        1.25790178
       65.46073       54.06290219        1.30054945
       65.56042       54.97300189        1.36977368
       65.66011       57.39081102        1.22047173
       65.75981       59.29601519        1.22823546
       65.85950       62.27438364        1.25079683
       65.95919       60.58443950        1.29134551
       66.05889       62.71776609        1.35909766
       66.15858       70.89155580        1.37438210
       66.25827       78.87180327        1.49954890
       66.35797       89.26101713        1.66225492
       66.45766       99.03006290        1.86070563
       66.55735      113.88655940        1.99557161
       66.65705      129.25000570        1.88641268
       66.75674      140.58190077        1.91748514
       66.85643      156.25619813        1.99928850
       66.95613      165.62509314        2.14058612
       67.05582      169.01128822        2.17869899
       67.15551      168.20462341        2.06826983
       67.25521      159.27461013        2.11200908
       67.35490      147.78844018        2.14122651
       67.45459      134.78821315        2.15610556
       67.55429      117.80816762        1.93061540
       67.65398       97.83490649        1.57632700
       67.75367       87.89042352        1.48162422
       67.85337       78.72969737        1.41924678
       67.95306       74.71379560        1.47825529
       68.05275       77.07678780        1.42182783
       68.15245       80.40837963        1.43983131
       68.25214       91.02861068        1.62648211
       68.35184       99.18858996        1.76976491
       68.45153      104.17064188        1.99675589
       68.55122      113.64314464        1.79706748
       68.65092      119.35926150        1.71677419
       68.75061      125.23647773        1.77689205
       68.85030      128.02454577        1.83126461
       68.95000      124.97962638        2.05117457
       69.04969      125.58541366        1.73656764
       69.14938      111.92567684        1.68516392
       69.24908       97.76468039        1.68135168
       69.34877       89.98597886        1.66812646
       69.44846       78.98593135        1.81228087
       69.54816       74.26593670        1.37003904
       69.64785       65.25941076        1.26591761
       69.74754       56.54957024        1.18997184
       69.84724       54.58999505        1.19961579
       69.94693       52.49980444        1.32759006
       70.04662       47.95108800        1.04320755
       70.14632       46.98617832        1.07378840
       70.24601       47.38822083        1.15466524
       70.34570       48.92839505        1.24162213
       70.44540       48.56080559        1.45739974
       70.54509       49.82853163        1.15560227
       70.64478       50.79396989        1.16512389
       70.74448       49.60394466        1.16959522
       70.84417       50.32179237        1.22245105
       70.94386       50.00553323        1.33767016
       71.04356       51.72806930        1.12589033
       71.14325       52.43793921        1.17802938
       71.24294       55.01147318        1.26964297
       71.34264       54.26205719        1.33702137
       71.44233       54.95508097        1.50150554
       71.54202       53.91621094        1.21075964
       71.64172       51.43369523        1.15022820
       71.74141       53.56496820        1.15260347
       71.84110       54.86642084        1.20758890
       71.94080       52.16615650        1.28298342
       72.04049       52.69021419        1.09137979
       72.14019       51.98701488        1.12947202
       72.23988       53.14161052        1.19487897
       72.33957       54.04014601        1.34596629
       72.43927       54.07677969        1.48214342
       72.53896       51.85605670        1.16361136
       72.63865       53.35900584        1.15380304
       72.73835       56.23254543        1.15853058
       72.83804       58.26476735        1.24536457
       72.93773       58.63689982        1.32708575
       73.03743       60.41909273        1.16937174
       73.13712       65.36850165        1.28293023
       73.23681       66.94097187        1.36402455
       73.33651       65.73067521        1.48721423
       73.43620       67.35555423        1.63074626
       73.53589       65.72805999        1.29944095
       73.63559       67.21541402        1.29349416
       73.73528       67.10825584        1.28658540
       73.83497       64.25725647        1.33457037
       73.93467       65.23699906        1.41602824
       74.03436       66.58953493        1.26616520
       74.13405       62.46671989        1.27829540
       74.23375       59.29574222        1.29714726
       74.33344       62.52464365        1.46651223
       74.43313       60.94768310        1.50234692
       74.53283       62.35820300        1.29120272
       74.63252       61.20121749        1.26984452
       74.73221       66.89445417        1.32136145
       74.83191       70.76658783        1.44187283
       74.93160       73.62952681        1.48744810
       75.03129       77.82921867        1.35973919
       75.13099       83.96680206        1.46315619
       75.23068       88.28431751        1.56507904
       75.33037       95.76462040        1.79211224
       75.43007      104.98891259        1.90400964
       75.52976      113.93630051        1.72321946
       75.62945      127.46272670        1.82173465
       75.72915      138.40893632        1.89138045
       75.82884      146.10785950        2.09267264
       75.92854      145.87118666        1.96278079
       76.02823      150.92650559        1.87268157
       76.12792      158.23151708        2.00458337
       76.22762      157.06539757        2.10702134
       76.32731      150.76302757        2.33088493
       76.42700      149.47615244        2.19043210
       76.52670      143.00921340        1.97616019
       76.62639      132.03130945        1.87414451
       76.72608      123.88135240        1.78484324
       76.82578      115.10104140        1.98186601
       76.92547      114.10696664        1.58053849
       77.02516      116.79606602        1.65751110
       77.12486      117.55896766        1.74689670
       77.22455      122.01491925        1.89523290
       77.32424      136.93866155        2.46785856
       77.42394      136.92645910        1.97038155
       77.52363      137.15314344        1.90558928
       77.62332      146.10915536        1.95838019
       77.72302      150.77875517        1.99418884
       77.82271      158.35579776        2.39731085
       77.92240      159.25432173        1.84095772
       78.02210      157.91624865        1.97800968
       78.12179      152.96263805        2.07888486
       78.22148      145.36953308        2.14257709
       78.32118      138.21384041        2.42365523
       78.42087      131.14480039        1.85765926
       78.52056      116.16059338        1.80458548
       78.62026      108.07847602        1.72662180
       78.71995       99.07588153        1.65826170
       78.81964       94.18316025        1.80572208
       78.91934       82.13225115        1.30612497
       79.01903       73.14910778        1.35103842
       79.11872       71.23305216        1.38746423
       79.21842       65.53828723        1.41945953
       79.31811       63.26794028        1.57085990
       79.41780       63.32597636        1.27488056
       79.51750       62.77359265        1.28973103
       79.61719       63.19633279        1.29789395
       79.71689       60.60785949        1.31951546
       79.81658       64.19819129        1.43976255
       79.91627       64.31291061        1.22151103
       80.01597       63.84854827        1.25097414
       80.11566       62.19820519        1.29063559
       80.21535       63.66274289        1.39584828
       80.31505       66.86804604        1.70077903
       80.41474       66.77269535        1.30596845
       80.51443       67.38612114        1.30623418
       80.61413       72.57934866        1.40083874
       80.71382       75.31193555        1.47626607
       80.81351       80.04325183        1.71040743
       80.91321       83.24304266        1.28633312
       81.01290       98.69913669        1.51268600
       81.11259      117.87368831        1.78512405
       81.21229      131.32648017        2.03856227
       81.31198      142.17410772        2.36644474
       81.41167      162.19822027        1.97983092
       81.51137      187.67004580        2.19202683
       81.61106      207.92841889        2.41023138
       81.71075      224.28573523        2.59163645
       81.81045      235.62472624        2.81472701
       81.91014      262.33375671        2.28515909
       82.00983      281.89661869        2.53299081
       82.10953      298.37789175        2.91642052
       82.20922      305.34343993        3.28150819
       82.30891      314.58513673        3.49343175
       82.40861      315.06220672        2.84297362
       82.50830      315.39874825        2.83717119
       82.60799      310.45363393        3.03166727
       82.70769      307.56403663        3.28356065
       82.80738      305.00522614        3.12398967
       82.90707      296.18155663        2.49920069
       83.00677      281.60593625        2.59561576
       83.10646      270.39952965        2.99209448
       83.20615      253.41456548        3.22287514
       83.30585      233.84589363        2.93153695
       83.40554      216.69153889        2.34544657
       83.50524      193.53060856        2.16180271
       83.60493      171.48782671        2.24082676
       83.70462      154.35394976        2.39643731
       83.80432      142.45812231        2.01162166
       83.90401      120.18501019        1.54920829
       84.00370      100.74951326        1.47881597
       84.10340       83.06844391        1.60391431
       84.20309       77.16056135        1.87648663
       84.30278       76.45409769        1.51917679
       84.40248       66.72856416        1.25224102
       84.50217       67.28349941        1.23365619
       84.60186       64.47316121        1.36539076
       84.70156       66.06895906        1.80881430
       84.80125       62.97412378        1.22934603
       84.90094       65.33368792        1.12493610
       85.00064       64.16197656        1.14853248
       85.10033       61.84689440        1.33440338
       85.20002       64.70411312        2.34114085
       85.29972       65.66057589        1.24410250
       85.39941       66.87238340        1.28012586
       85.49910       68.07091808        1.25604841
       85.59880       68.61493570        1.41804111
       85.69849       64.97024920        2.47701900
       85.79818       66.00517183        1.17713368
       85.89788       65.56961120        1.14519336
       85.99757       63.62559620        1.15903517
       86.09726       64.14535440        1.33619240
       86.19696       66.61768472        2.61557765
       86.29665       65.05262855        1.22307169
       86.39634       64.00174585        1.23416109
       86.49604       59.64842432        1.17325055
       86.59573       61.20463901        1.26635419
       86.69542       63.90756386        2.70577967
       86.79512       55.29105480        1.04441783
       86.89481       55.15829631        1.02845847
       86.99451       55.72935257        1.07156720
       87.09420       54.03184218        1.17667644
       87.19389       57.14956376        2.86688993
       87.29359       52.22459371        1.11048965
       87.39328       52.02987756        1.12338522
       87.49297       49.85109323        1.06739102
       87.59267       49.71544854        1.08689349
       87.69236       49.35187898        3.24034855
       87.79205       51.12750353        1.02747062
       87.89175       48.85604965        0.99622155
       87.99144       51.75065962        1.06849505
       88.09113       52.40611731        1.14287777
       88.19083       46.28595506        5.68247424
       88.29052       49.93017088        1.12248492
       88.39021       49.46865796        1.12471425
       88.48991       50.97075848        1.09573089
       88.58960       49.77789145        1.04858636
       88.68929       46.70562237        7.86753040
       88.78899       49.28136718        1.00705373
       88.88868       48.78111102        0.98002958
       88.98837       52.07554770        1.05330137
       89.08807       51.61739703        1.07409582
       89.18776       49.80810814        8.58436096
       89.28745       51.87122554        1.09398248
       89.38715       51.47269065        1.10094980
       89.48684       52.43919119        1.08749778
       89.58653       55.58505472        1.09701586
       89.68623       69.54702283        9.95259033
       89.78592       61.73395005        1.12359977
       89.88561       64.61425926        1.12705780
       89.98531       62.80097049        1.13926790
       90.08500       70.52923778        1.25250135
       90.18469       83.77360595       11.38992483
       90.28439       78.87033553        1.35308890
       90.38408       79.80106335        1.38391004
       90.48377       89.29181731        1.43684887
       90.58347       91.97107941        1.43542286
       90.68316       90.99143115       11.12110772
       90.78286       96.90197542        1.41061192
       90.88255       99.75205024        1.39274524
       90.98224       99.48863834        1.43905556
       91.08194      100.15672805        1.49128477
       91.18163       98.17262186       11.78072985
       91.28132      101.50612266        1.54580398
       91.38102       99.42532320        1.57036416
       91.48071       94.25136788        1.49117073
       91.58040       87.61116086        1.39010015
       91.68010       79.93695432       10.04271419
       91.77979       84.28515831        1.30872235
       91.87948       78.08440087        1.23994384
       91.97918       76.70380093        1.27607393
       92.07887       72.79669436        1.29479175
       92.17856       90.45970404       10.98117438
       92.27826       69.86817305        1.30994845
       92.37795       70.69303650        1.34895568
       92.47764       71.57012144        1.28852353
       92.57734       74.32394163        1.27394500
       92.67703       83.08460205        8.74599308
       92.77672       79.32766103        1.26870475
       92.87642       82.92888559        1.27257195
       92.97611       87.98654344        1.36898255
       93.07580       91.13540877        1.59033161
       93.17550       90.52423634        2.98034243
       93.27519       94.22799944        1.49066943
       93.37488       96.28295607        1.46485702
       93.47458      101.65436731        1.52199881
       93.57427      100.67895016        1.75109767
       93.67396      105.09499717        2.41817696
       93.77366      104.49632576        1.49371371
       93.87335      101.48185649        1.40590959
       93.97304       96.14734074        1.42584387
       94.07274       92.44401187        1.81493294
       94.17243       91.88625553        2.06457751
       94.27212       91.30665589        1.53284183
       94.37182       91.06839074        1.49194292
       94.47151       86.42481991        1.39166882
       94.57121       84.16161368        1.81232297
       94.67090       82.84927502        1.81887852
       94.77059       80.79827887        1.39623324
       94.87029       73.95090116        1.21436818
       94.96998       68.59177221        1.18413660
       95.06967       65.54306576        1.33423473
       95.16937       64.71396343        1.81479859
       95.26906       65.32180746        1.40857908
       95.36875       62.04922318        1.24557162
       95.46845       58.31312256        1.16030016
       95.56814       58.59721477        1.33841234
       95.66783       58.57842450        1.50340358
       95.76753       56.49983201        1.22003014
       95.86722       54.62779072        1.02037517
       95.96691       54.75820607        1.05965407
       96.06661       56.55032490        1.37956021
       96.16630       52.42469228        1.41627394
       96.26599       52.15634371        1.26863473
       96.36569       51.16854743        1.12744953
       96.46538       50.77295697        1.08385913
       96.56507       46.91416312        1.28575012
       96.66477       47.50207037        1.26072343
       96.76446       48.84085477        1.14242522
       96.86415       48.97016342        0.99087570
       96.96385       47.58089854        1.00874888
       97.06354       48.19588005        1.37285158
       97.16323       50.35526129        1.34184966
       97.26293       49.63510087        1.25158831
       97.36262       49.71694816        1.15996916
       97.46231       49.11611272        1.06066083
       97.56201       50.82579944        1.37278583
       97.66170       53.56189884        1.26589393
       97.76139       50.75869743        1.11944025
       97.86109       54.10146497        1.04517592
       97.96078       55.96329573        1.08629982
       98.06047       54.92614584        1.49474847
       98.16017       56.48145318        1.34753151
       98.25986       55.53510887        1.27626121
       98.35956       55.89407987        1.20880838
       98.45925       58.85887608        1.15795556
       98.55894       63.04859568        1.56356984
       98.65864       63.08870713        1.34199075
       98.75833       65.93132420        1.28197496
       98.85802       67.16727130        1.20822042
       98.95772       70.46949681        1.22944664
       99.05741       70.88253188        1.71179225
       99.15710       71.52330081        1.47880830
       99.25680       74.81713273        1.46546972
       99.35649       80.14374924        1.44484810
       99.45618       81.91316547        1.36133371
       99.55588       82.06626418        1.82069985
       99.65557       83.80867220        1.51801000
       99.75526       84.35129634        1.42740696
       99.85496       87.02484885        1.38006587
       99.95465       87.08090518        1.35342709
      100.05434       83.58554093        1.88874008
      100.15404       86.79045959        1.62126854
      100.25373       90.23608752        1.63353777
      100.35342       86.10414775        1.58923190
      100.45312       84.32834315        1.43505467
      100.55281       86.08096654        1.90441691
      100.65250       83.09838956        1.52417888
      100.75220       79.72946950        1.38274191
      100.85189       79.70975686        1.32104900
      100.95158       78.92237818        1.27935168
      101.05128       77.48695169        1.80721784
      101.15097       75.32252932        1.47250512
      101.25066       74.68752831        1.44867424
      101.35036       76.43819931        1.47835014
      101.45005       73.30010207        1.36120120
      101.54974       74.68076314        1.71139782
      101.64944       73.73570128        1.38737836
      101.74913       77.13959596        1.33720246
      101.84882       78.29883351        1.31145718
      101.94852       78.79321553        1.38582288
      102.04821       81.48964875        1.69766252
      102.14791       80.74069237        1.52289629
      102.24760       83.52169674        1.53597118
      102.34729       85.26818548        1.54570844
      102.44699       83.42251337        1.55536887
      102.54668       86.02200304        1.65746435
      102.64637       88.42909608        1.50101426
      102.74607       89.96334101        1.44194347
      102.84576       91.36310930        1.42559544
      102.94545       94.01136364        1.64719937
      103.04515       85.62550922        1.66368910
      103.14484       91.51744995        1.60731631
      103.24453       86.93422352        1.54213483
      103.34423       85.67706056        1.51848387
      103.44392       86.81476097        1.65581731
      103.54361       87.44682958        1.61442000
      103.64331       86.47091786        1.46127876
      103.74300       86.38389167        1.39315744
      103.84269       85.16223545        1.35926764
      103.94239       84.80911473        1.63004841
      104.04208       82.83443130        1.55839413
      104.14177       80.34896929        1.49312795
      104.24147       84.18183118        1.52775476
      104.34116       81.90723459        1.51620807
      104.44085       79.34876562        1.69478340
      104.54055       77.01133704        1.51154724
      104.64024       79.41940051        1.44301145
      104.73993       76.14360463        1.34816057
      104.83963       74.60175083        1.28557948
      104.93932       72.41807850        1.53540479
      105.03901       73.52860703        1.45783933
      105.13871       69.88697841        1.36834480
      105.23840       72.65692861        1.39453303
      105.33809       67.99159384        1.35675912
      105.43779       68.08936927        1.57978442
      105.53748       66.48526762        1.39986862
      105.63717       64.72316475        1.26594712
      105.73687       61.12544330        1.17067020
      105.83656       60.68464009        1.13658930
      105.93626       56.20362962        1.38592530
      106.03595       58.54263801        1.28207821
      106.13564       55.90322984        1.21078158
      106.23534       54.46070132        1.20971265
      106.33503       53.03416276        1.20576320
      106.43472       51.75680961        1.40815269
      106.53442       51.49848451        1.22174638
      106.63411       51.81893410        1.11329599
      106.73380       53.69053914        1.08013933
      106.83350       51.02555755        1.03717307
      106.93319       52.58155717        1.36492673
      107.03288       54.84681416        1.23559611
      107.13258       53.77684297        1.18751659
      107.23227       56.69401289        1.23712312
      107.33196       55.52029387        1.22083951
      107.43166       58.71675336        1.50869686
      107.53135       55.11958909        1.26103877
      107.63104       59.10864482        1.18924486
      107.73074       59.73885520        1.14706623
      107.83043       63.25819376        1.16559461
      107.93012       59.62742870        1.49683202
      108.02982       60.90240125        1.32410815
      108.12951       63.46688735        1.28552601
      108.22920       66.30174733        1.29298340
      108.32890       66.63401693        1.28387616
      108.42859       66.45092427        1.62718754
      108.52828       67.81695338        1.39444098
      108.62798       68.52439903        1.27102735
      108.72767       71.07136999        1.24255234
      108.82736       71.00699867        1.26935249
      108.92706       70.44687842        1.60124094
      109.02675       70.51691858        1.40151702
      109.12644       66.87818384        1.33196936
      109.22614       67.83744190        1.34258878
      109.32583       68.94923644        1.47500195
      109.42552       69.99607904        1.56767539
      109.52522       67.62105057        1.39003291
      109.62491       68.67334470        1.33245296
      109.72461       64.39492438        1.23339431
      109.82430       61.93902225        1.12987103
      109.92399       61.41094661        1.46273951
      110.02369       60.15525665        1.26771243
      110.12338       59.77836435        1.25548396
      110.22307       59.53911714        1.24358152
      110.32277       58.86509293        1.26266005
      110.42246       58.25591552        1.52725308
      110.52215       58.29404246        1.29395377
      110.62185       54.54669411        1.17949324
      110.72154       53.55642768        1.09033822
      110.82123       55.02232269        1.14142580
      110.92093       56.23224561        1.34588987
      111.02062       53.22433121        1.20956526
      111.12031       56.38505563        1.25439767
      111.22001       56.83344655        1.23580274
      111.31970       58.58762614        1.36181236
      111.41939       57.42916777        1.39510189
      111.51909       58.04141859        1.27264206
      111.61878       58.18479015        1.20033678
      111.71847       61.13316936        1.14484020
      111.81817       63.67226166        1.26820759
      111.91786       65.56362851        1.35439872
      112.01755       65.00759625        1.31684752
      112.11725       67.94239004        1.35658068
      112.21694       71.76223374        1.38811934
      112.31663       72.33838254        1.53579785
      112.41633       74.28284034        1.52899834
      112.51602       76.07680662        1.42500891
      112.61571       82.71909055        1.41778099
      112.71541       81.16883473        1.32344822
      112.81510       87.27987720        1.53912462
      112.91479       87.66137857        1.57127695
      113.01449       87.39079994        1.53628376
      113.11418       86.14841839        1.52015996
      113.21387       87.41185315        1.52436838
      113.31357       91.28888501        1.73030106
      113.41326       90.47796809        1.63702040
      113.51296       94.85175495        1.57688612
      113.61265       91.05571113        1.49058072
      113.71234       91.59348876        1.42798698
      113.81204       92.47314299        1.64384265
      113.91173       91.18697077        1.58172690
      114.01142       88.81962232        1.54520763
      114.11112       84.03940952        1.50200209
      114.21081       88.45529580        1.55234537
      114.31050       85.72883466        1.73291191
      114.41020       82.96681789        1.57514685
      114.50989       86.57477675        1.50650806
      114.60958       82.66116740        1.42434271
      114.70928       80.19534262        1.35298588
      114.80897       79.96746209        1.53234138
      114.90866       80.89725153        1.45373351
      115.00836       80.53186966        1.44364875
      115.10805       81.98412667        1.46461609
      115.20774       80.70175793        1.47504006
      115.30744       79.41703300        1.68000513
      115.40713       79.43697234        1.52187240
      115.50682       82.65381285        1.46573338
      115.60652       84.68080079        1.42995089
      115.70621       86.09918122        1.38581649
      115.80590       83.49276290        1.59186332
      115.90560       85.88490318        1.46345771
      116.00529       90.43183083        1.51869546
      116.10498       96.41934160        1.58488485
      116.20468       94.74445924        1.60703519
      116.30437      100.02714728        1.96873200
      116.40406       97.98157424        1.69693741
      116.50376       97.85508493        1.60255434
      116.60345      104.73997043        1.59191204
      116.70314      109.54830822        1.57891929
      116.80284      118.34824867        1.95055804
      116.90253      121.44951536        1.77765963
      117.00222      126.48273518        1.80009001
      117.10192      132.82515061        1.89451501
      117.20161      136.16924251        1.94179463
      117.30131      136.35506258        2.32519297
      117.40100      143.82100684        2.00812028
      117.50069      148.37244622        1.93748486
      117.60039      153.36710200        1.88545982
      117.70008      158.84030140        1.85925356
      117.79977      163.01329751        2.30839171
      117.89947      168.96529991        2.04348581
      117.99916      170.51190638        2.07740902
      118.09885      169.92666986        2.11268097
      118.19855      173.14796026        2.23392276
      118.29824      173.59633903        2.45217325
      118.39793      172.42554890        2.21877172
      118.49763      178.12440067        2.12844961
      118.59732      179.97242716        2.06574006
      118.69701      181.16922462        2.15920064
      118.79671      183.12529612        2.34414896
      118.89640      179.69406022        2.16474562
      118.99609      176.19631462        2.14101857
      119.09579      177.81098835        2.17599866
      119.19548      172.64000044        2.34237934
      119.29517      176.70654802        2.46239925
      119.39487      170.92474810        2.22580808
      119.49456      171.69937029        2.10233049
      119.59425      165.41055761        2.00351557
      119.69395      155.87033783        2.05118589
      119.79364      154.30524803        2.06243232
      119.89333      151.66489984        1.97872793
      119.99303      143.47426147        1.87851333
      120.09272      140.74540935        1.90278535
      120.19241      139.37972634        2.12826459
      120.29211      129.79516596        2.03216198
      120.39180      130.28902058        1.94248924
      120.49149      128.24418055        1.79225104
      120.59119      121.54688853        1.69314673
      120.69088      119.69284071        1.80860879
      120.79057      121.54096202        1.78350905
      120.89027      120.72153790        1.74502744
      120.98996      119.47584002        1.72258395
      121.08966      117.17934789        1.71858075
      121.18935      118.24672017        1.97896445
      121.28904      118.26570423        1.92895345
      121.38874      119.51712259        1.83380853
      121.48843      116.94376398        1.71314511
      121.58812      115.36093309        1.62272329
      121.68782      116.69335710        1.80813854
      121.78751      115.42600897        1.71352371
      121.88720      119.95222104        1.72473716
      121.98690      114.91825973        1.70050725
      122.08659      113.88045946        1.72664870
      122.18628      115.75820713        2.01959366
      122.28598      114.99717737        1.89290085
      122.38567      111.62556424        1.78591077
      122.48536      110.37801028        1.67981218
      122.58506      111.14219007        1.59649980
      122.68475      113.68521665        1.82986570
      122.78444      107.47145052        1.67490521
      122.88414      108.67267975        1.67001311
      122.98383      105.24009174        1.67689813
      123.08352      102.82118351        1.64320187
      123.18322      102.89659229        1.91720127
      123.28291      101.33652820        1.72908920
      123.38260       98.55892864        1.64600655
      123.48230       98.30043415        1.58434570
      123.58199       99.86638915        1.49267605
      123.68168       94.84232368        1.65960773
      123.78138       93.92976343        1.49003792
      123.88107       93.46276776        1.45193993
      123.98076       88.90256305        1.44203996
      124.08046       89.63326955        1.43273493
      124.18015       87.06047775        1.59806991
      124.27984       85.36316766        1.41765619
      124.37954       84.13117641        1.32799965
      124.47923       80.93587484        1.27146277
      124.57893       78.04119188        1.33003362
