        5.04651       53.40903118        2.49169249
        5.14621       51.71401315        2.36281995
        5.24590       54.96223737        2.40123909
        5.34559       58.80683685        2.27836466
        5.44529       53.61962961        2.36638009
        5.54498       53.63318953        1.99079931
        5.64467       52.14575792        1.94574001
        5.74437       48.05547670        1.68586063
        5.84406       47.57431312        1.69749498
        5.94375       53.42628435        1.79682910
        6.04345       48.18713792        1.65783481
        6.14314       54.31368889        1.61189104
        6.24283       50.32394901        1.60255180
        6.34253       49.42246005        1.51470343
        6.44222       47.29639186        1.56012855
        6.54191       49.56651423        1.51315731
        6.64161       47.69822023        1.40610435
        6.74130       50.98203613        1.45974156
        6.84099       50.12955018        1.43696253
        6.94069       48.24897594        1.43088475
        7.04038       45.43330743        1.28156421
        7.14007       47.95602121        1.31405039
        7.23977       48.86941874        1.30335514
        7.33946       47.82489714        1.30903936
        7.43915       48.99858360        1.30776920
        7.53885       46.64480131        1.25232518
        7.63854       48.74669940        1.22370595
        7.73823       48.10814573        1.26226843
        7.83793       48.31121756        1.22409600
        7.93762       48.58902302        1.28058699
        8.03732       47.31539164        1.13326128
        8.13701       46.84233980        1.12247339
        8.23670       46.12853797        1.12957736
        8.33640       47.82024731        1.15048826
        8.43609       46.11349970        1.18105747
        8.53578       47.38026837        1.11514355
        8.63548       45.34975271        1.07837008
        8.73517       46.34971921        1.06945355
        8.83486       47.40868908        1.08427609
        8.93456       48.15003024        1.08713689
        9.03425       46.89768244        1.04144212
        9.13394       47.22395592        1.04703814
        9.23364       44.88689317        1.03562050
        9.33333       45.44181635        1.06323846
        9.43302       44.81109009        1.05620326
        9.53272       46.61942116        1.04097281
        9.63241       46.10997943        1.06451254
        9.73210       46.59616708        1.06798330
        9.83180       48.10245075        1.13073482
        9.93149       45.71891510        1.09438156
       10.03118       46.63356201        1.06351944
       10.13088       45.84298264        1.02917015
       10.23057       45.52660916        1.07401344
       10.33026       47.51294494        1.13421392
       10.42996       49.18619490        1.13826827
       10.52965       48.02940218        1.08927479
       10.62934       48.41940861        1.09633112
       10.72904       46.63732858        1.09181097
       10.82873       47.69931867        1.09864896
       10.92842       48.88981709        1.13096598
       11.02812       49.22873855        1.08122491
       11.12781       51.44580850        1.14504053
       11.22750       50.89613602        1.15023143
       11.32720       47.97186933        1.14661737
       11.42689       52.45768358        1.15761208
       11.52658       52.53885264        1.14470376
       11.62628       53.63716513        1.16920163
       11.72597       56.37934319        1.22429527
       11.82567       59.80281084        1.29613822
       11.92536       59.92256364        1.21416987
       12.02505       66.93900615        1.28958062
       12.12475       74.28110673        1.35757861
       12.22444       80.25793586        1.49663380
       12.32413       94.26697963        1.64746170
       12.42383      103.32196823        1.63747120
       12.52352      119.71212633        1.75242066
       12.62321      137.08908326        1.92924825
       12.72291      162.41288342        2.04452092
       12.82260      188.40369743        2.39490468
       12.92229      211.10102765        2.30323745
       13.02199      235.94692396        2.41649550
       13.12168      261.84296510        2.59055061
       13.22137      296.17702899        2.84587598
       13.32107      311.58328010        3.01239108
       13.42076      345.18360569        3.05348160
       13.52045      359.62231638        3.15403207
       13.62015      364.79618266        3.07869747
       13.71984      341.65058000        3.10363808
       13.81953      306.37289610        2.98733392
       13.91923      280.86164360        2.68712957
       14.01892      219.47419526        2.31120296
       14.11861      171.70129655        2.13221429
       14.21831      137.19997206        1.90743634
       14.31800      111.34588412        1.80860394
       14.41769       83.19248740        1.50481967
       14.51739       70.47947757        1.35110848
       14.61708       60.08543536        1.25040937
       14.71677       53.57744654        1.19985566
       14.81647       51.04421523        1.22680466
       14.91616       50.07947633        1.11745929
       15.01585       47.86828626        1.11212659
       15.11555       48.04912471        1.12714796
       15.21524       49.82942290        1.18309898
       15.31493       47.30296707        1.18040864
       15.41463       47.13084952        1.14081543
       15.51432       46.94727968        1.10330548
       15.61402       46.55410133        1.12648110
       15.71371       49.18521090        1.15002971
       15.81340       45.76928871        1.15393729
       15.91310       45.52426933        1.11821571
       16.01279       47.05150331        1.08855036
       16.11248       47.55791245        1.12380134
       16.21218       47.41587351        1.15321258
       16.31187       47.25326655        1.15404181
       16.41156       46.33506329        1.12145900
       16.51126       49.29181875        1.17636756
       16.61095       48.19942010        1.12160457
       16.71064       50.18389643        1.18072701
       16.81034       50.16611420        1.18408958
       16.91003       53.21327249        1.18447797
       17.00972       52.72361249        1.13182882
       17.10942       57.23658359        1.24661515
       17.20911       60.84456055        1.29680522
       17.30880       64.60512660        1.34803590
       17.40850       70.37161558        1.40683473
       17.50819       71.45317571        1.37652752
       17.60788       76.41885202        1.46799851
       17.70758       73.55118285        1.44597824
       17.80727       75.96552158        1.48778864
       17.90696       72.65550085        1.36025344
       18.00666       67.41395801        1.33303935
       18.10635       63.50350491        1.25828954
       18.20604       55.95055699        1.29535803
       18.30574       58.11725631        1.25834515
       18.40543       56.73702634        1.21249692
       18.50512       54.66122181        1.22758228
       18.60482       53.00150625        1.18977400
       18.70451       50.49201764        1.22707153
       18.80420       52.25247815        1.17274363
       18.90390       48.49699296        1.11760544
       19.00359       49.32935272        1.09772383
       19.10328       47.78869021        1.14303699
       19.20298       48.35781330        1.18562529
       19.30267       46.66368227        1.11839130
       19.40237       44.57505687        1.08062496
       19.50206       45.31109327        1.11693157
       19.60175       44.87833644        1.09910388
       19.70145       46.32051034        1.17094369
       19.80114       44.50532100        1.08852243
       19.90083       45.49289819        1.06337861
       20.00053       47.07765901        1.10099715
       20.10022       50.19738301        1.14546199
       20.19991       49.06955086        1.21074264
       20.29961       47.63286006        1.13020907
       20.39930       50.29999363        1.19661815
       20.49899       50.94832480        1.18340996
       20.59869       52.28548037        1.22081560
       20.69838       54.03005189        1.28685833
       20.79807       52.16482963        1.20595373
       20.89777       53.27266383        1.19116781
       20.99746       55.90530163        1.23249267
       21.09715       56.36016011        1.30349923
       21.19685       58.06922038        1.31629820
       21.29654       60.58542610        1.31168212
       21.39623       57.24630636        1.27494059
       21.49593       54.35993433        1.22450180
       21.59562       52.39508417        1.23103154
       21.69531       54.03354049        1.30037691
       21.79501       49.42964847        1.13759421
       21.89470       47.48514510        1.08983008
       21.99439       46.30357390        1.12176667
       22.09409       46.54615987        1.12749791
       22.19378       46.36205942        1.19501430
       22.29347       44.76084829        1.09351986
       22.39317       44.90035804        1.12360072
       22.49286       47.85398085        1.15916187
       22.59255       45.49803972        1.14346286
       22.69225       48.86007722        1.24885777
       22.79194       48.91860909        1.12226449
       22.89163       53.28163319        1.14851916
       22.99133       55.92488461        1.20940546
       23.09102       60.80806264        1.30993262
       23.19072       66.35131438        1.37183242
       23.29041       65.85792279        1.34968204
       23.39010       68.42384369        1.39026141
       23.48980       66.60140297        1.37651344
       23.58949       66.18277114        1.39056102
       23.68918       62.39249429        1.41958528
       23.78888       55.46539389        1.19254663
       23.88857       53.14569895        1.18252175
       23.98826       50.54999157        1.17893565
       24.08796       46.35738162        1.10682655
       24.18765       43.05937066        1.14287464
       24.28734       45.02607186        1.11277801
       24.38704       43.01472402        1.10573959
       24.48673       42.91299270        1.10047768
       24.58642       43.58676316        1.14580794
       24.68612       43.77513277        1.14677164
       24.78581       44.90266637        1.07069940
       24.88550       43.53783276        1.05382115
       24.98520       45.35064848        1.11539229
       25.08489       47.31340914        1.16210193
       25.18458       43.45336021        1.13692832
       25.28428       46.20464103        1.13006296
       25.38397       48.39724603        1.15103615
       25.48366       51.00140807        1.18877565
       25.58336       53.75217400        1.27215529
       25.68305       59.75730033        1.31580342
       25.78274       66.98446788        1.31507387
       25.88244       84.36603538        1.51382637
       25.98213      104.18831599        1.69676812
       26.08182      126.06445715        1.91615899
       26.18152      151.57072417        2.15291729
       26.28121      173.95346376        2.18240893
       26.38090      190.46620877        2.30357287
       26.48060      199.16205313        2.42119432
       26.58029      186.78026986        2.44547351
       26.67998      175.62152447        2.23961038
       26.77968      143.94482400        2.00229915
       26.87937      117.20584383        1.78014348
       26.97907       93.20309077        1.57345212
       27.07876       80.10955474        1.57029270
       27.17845       75.94370261        1.46096946
       27.27815       78.78653295        1.45332935
       27.37784       82.59396577        1.54617830
       27.47753       81.31468311        1.51140825
       27.57723       86.41219321        1.63244257
       27.67692       87.42455375        1.60278238
       27.77661       76.42308405        1.42981988
       27.87631       68.13119356        1.32731475
       27.97600       61.53949102        1.28971195
       28.07569       56.32035772        1.30567131
       28.17539       53.21184314        1.21487628
       28.27508       50.68467826        1.18611004
       28.37477       47.46513066        1.17500900
       28.47447       48.65096846        1.18035480
       28.57416       51.53728159        1.31354771
       28.67385       52.16196952        1.17572360
       28.77355       52.03907031        1.15313507
       28.87324       57.74437534        1.24729889
       28.97293       57.88831084        1.25176922
       29.07263       56.00436778        1.34201438
       29.17232       56.71579456        1.23249082
       29.27201       56.24328401        1.25000623
       29.37171       52.04245570        1.23676419
       29.47140       51.61828242        1.21748833
       29.57109       48.79923517        1.25515886
       29.67079       48.02007497        1.13349708
       29.77048       46.26941593        1.11515644
       29.87017       49.45923384        1.13045279
       29.96987       46.49436479        1.14911541
       30.06956       45.84538972        1.17719244
       30.16925       45.35478765        1.10243335
       30.26895       46.09939198        1.11572112
       30.36864       47.93521151        1.15638693
       30.46833       48.98483318        1.18086600
       30.56803       53.20050711        1.30014270
       30.66772       55.37048225        1.23439097
       30.76742       58.22310363        1.24056044
       30.86711       60.28734982        1.28759493
       30.96680       65.27569072        1.34777791
       31.06650       63.85312313        1.39766264
       31.16619       61.33873664        1.28789552
       31.26588       60.36688651        1.26994163
       31.36558       58.55165299        1.26700594
       31.46527       58.61219135        1.31902066
       31.56496       57.74491293        1.33020589
       31.66466       62.91620484        1.29872340
       31.76435       69.35199591        1.36238287
       31.86404       77.22266481        1.41902623
       31.96374       85.61953311        1.52921539
       32.06343       87.10827971        1.59625303
       32.16312       87.72643074        1.50549276
       32.26282       83.69508561        1.50627333
       32.36251       77.10583965        1.50334716
       32.46220       73.73234752        1.49636262
       32.56190       71.26704842        1.49715503
       32.66159       65.95540398        1.36753118
       32.76128       66.09212806        1.33825229
       32.86098       65.28377662        1.34998290
       32.96067       61.11806762        1.32237487
       33.06036       62.12260987        1.35757386
       33.16006       57.36617337        1.22838128
       33.25975       57.81280564        1.27323573
       33.35944       55.49365563        1.25409452
       33.45914       54.87884485        1.29453652
       33.55883       58.04415278        1.33460949
       33.65852       58.31700961        1.24742819
       33.75822       64.72842659        1.31217904
       33.85791       71.58432388        1.38577542
       33.95760       78.39419073        1.49322686
       34.05730       91.51461558        1.59819508
       34.15699      104.84782818        1.68393833
       34.25668      120.82101417        1.80186908
       34.35638      148.40172407        2.04958174
       34.45607      186.45612072        2.42097363
       34.55577      228.83428934        2.55684576
       34.65546      296.04462114        2.79114042
       34.75515      366.08847932        3.16462404
       34.85485      426.56399971        3.39186852
       34.95454      451.34435238        3.59948598
       35.05423      434.19684702        3.65031641
       35.15393      384.55729965        3.22433375
       35.25362      319.36582564        2.98294764
       35.35331      245.30273955        2.68039678
       35.45301      185.46808682        2.43056344
       35.55270      141.12663753        2.06337711
       35.65239      108.60627395        1.74738857
       35.75209       89.19422982        1.57140707
       35.85178       77.61235295        1.46345907
       35.95147       72.63853192        1.44895578
       36.05117       67.90792556        1.37196950
       36.15086       67.43591196        1.31461697
       36.25055       60.94685673        1.30544139
       36.35025       62.55041429        1.34849704
       36.44994       60.23140904        1.34961612
       36.54963       58.63225777        1.27819400
       36.64933       55.66352508        1.22670435
       36.74902       55.96588474        1.24289934
       36.84871       53.92525675        1.21114141
       36.94841       52.58093021        1.29328681
       37.04810       51.51024593        1.12864060
       37.14779       48.09307817        1.11279029
       37.24749       51.10955648        1.17919381
       37.34718       48.48950545        1.17776203
       37.44687       46.53295007        1.23927680
       37.54657       48.25369676        1.15217715
       37.64626       47.14330061        1.13443218
       37.74595       46.45546575        1.10849156
       37.84565       45.95058835        1.16647260
       37.94534       47.47160426        1.20791229
       38.04503       47.57425280        1.09292606
       38.14473       47.28569926        1.10027327
       38.24442       48.08288170        1.12981868
       38.34412       48.30701849        1.18396893
       38.44381       48.27442719        1.27978266
       38.54350       48.40761977        1.14239123
       38.64320       50.42053382        1.16244969
       38.74289       50.14185673        1.17438264
       38.84258       51.76649823        1.19621030
       38.94228       55.66083156        1.30118235
       39.04197       59.19122574        1.21006628
       39.14166       65.00429517        1.31939001
       39.24136       66.72663272        1.33320844
       39.34105       70.59940443        1.41934842
       39.44074       71.55409015        1.55865365
       39.54044       72.32129494        1.40113358
       39.64013       69.16645776        1.36590373
       39.73982       66.73287408        1.34699401
       39.83952       63.54931580        1.30545896
       39.93921       60.25958236        1.34775613
       40.03890       59.55503771        1.22642965
       40.13860       57.20235957        1.20031109
       40.23829       57.38887486        1.24480878
       40.33798       56.73103678        1.27620527
       40.43768       56.91134393        1.33738699
       40.53737       55.51657987        1.22590245
       40.63706       58.24629156        1.28216674
       40.73676       58.25299688        1.28020421
       40.83645       61.42818560        1.32575328
       40.93614       62.11913867        1.35555400
       41.03584       64.81541937        1.30316555
       41.13553       77.16999222        1.42405609
       41.23522       91.87145886        1.59205682
       41.33492      115.52691585        1.86984512
       41.43461      135.71226049        2.09222020
       41.53430      165.23399368        2.16319648
       41.63400      189.63391289        2.36886025
       41.73369      209.02045438        2.43346844
       41.83338      218.68118850        2.55604064
       41.93308      217.01309936        2.52336669
       42.03277      224.45441420        2.34596519
       42.13247      247.07349426        2.58784696
       42.23216      290.66282598        2.81335118
       42.33185      357.01227607        3.34949666
       42.43155      412.41144851        3.54754701
       42.53124      482.74523275        3.71859873
       42.63093      521.20815704        3.87110612
       42.73063      536.66389179        3.94568547
       42.83032      523.54486062        3.96588132
       42.93001      503.31554572        3.74372583
       43.02971      425.38729186        3.24897939
       43.12940      339.01869658        2.95722962
       43.22909      261.11875272        2.72603742
       43.32879      202.30158729        2.52638462
       43.42848      151.42040823        2.13617251
       43.52817      112.85160182        1.76336428
       43.62787       85.78800758        1.53154352
       43.72756       77.65315731        1.49150548
       43.82725       65.16495581        1.42622090
       43.92695       60.80658396        1.24919822
       44.02664       55.53819624        1.18796224
       44.12633       58.14806684        1.26099504
       44.22603       54.55087616        1.27111934
       44.32572       56.38918082        1.36218606
       44.42541       52.76852619        1.25794397
       44.52511       55.67756284        1.25752638
       44.62480       55.37693430        1.27184164
       44.72449       56.46924117        1.24465597
       44.82419       61.58022468        1.45871130
       44.92388       63.93930848        1.23971382
       45.02357       75.30718385        1.35684814
       45.12327       88.85329361        1.51853284
       45.22296      108.11858134        1.71988809
       45.32265      130.58702114        2.09176171
       45.42235      152.47558138        2.05869469
       45.52204      177.98377079        2.20263707
       45.62174      206.15094368        2.41465060
       45.72143      221.08170320        2.50067997
       45.82112      232.78177898        2.80950701
       45.92082      232.14816345        2.38172604
       46.02051      232.52921899        2.43470716
       46.12020      228.42209618        2.42099278
       46.21990      213.02423201        2.45612770
       46.31959      195.57678424        2.54065127
       46.41928      178.97565970        2.24440977
       46.51898      153.86767879        2.09175597
       46.61867      124.69373664        1.87244162
       46.71836       98.63113487        1.70708658
       46.81806       84.25529841        1.63554068
       46.91775       69.30676649        1.29249148
       47.01744       64.25561628        1.27401823
       47.11714       64.32506968        1.30382125
       47.21683       70.14076310        1.40179885
       47.31652       77.00584409        1.60263573
       47.41622       86.82345921        1.60399754
       47.51591      102.72035070        1.74844474
       47.61560      120.89943735        1.88162008
       47.71530      135.27114953        2.01215502
       47.81499      144.39473224        2.13126184
       47.91468      156.14603417        1.93907221
       48.01438      170.91230297        2.03023770
       48.11407      176.34186655        2.13960507
       48.21376      175.58386329        2.22904521
       48.31346      170.19417136        2.27254069
       48.41315      157.96672021        2.04029041
       48.51284      141.22772566        1.99277028
       48.61254      124.28185051        1.86130197
       48.71223      107.23364189        1.75979750
       48.81192       88.71560983        1.59620576
       48.91162       75.49197503        1.31960319
       49.01131       64.59262060        1.26309424
       49.11100       58.09783141        1.24085882
       49.21070       57.18323557        1.29244737
       49.31039       51.59976262        1.26331928
       49.41009       49.21811211        1.16548067
       49.50978       48.49402740        1.18078474
       49.60947       49.59556609        1.20290811
       49.70917       48.24104306        1.23029960
       49.80886       47.74329622        1.19117207
       49.90855       50.90603814        1.12057033
       50.00825       50.90397358        1.14421535
       50.10794       51.24844572        1.17422305
       50.20763       50.27689155        1.21506552
       50.30733       52.37641153        1.29916569
       50.40702       53.51858345        1.23157566
       50.50671       57.09919892        1.27600416
       50.60641       56.29073004        1.26869694
       50.70610       57.24929067        1.31655486
       50.80579       56.03059063        1.28522344
       50.90549       55.65604134        1.15484309
       51.00518       54.12800490        1.14891502
       51.10487       55.40211519        1.20157414
       51.20457       52.87035432        1.24950223
       51.30426       55.52072989        1.27389618
       51.40395       55.73350120        1.22359527
       51.50365       58.09354589        1.26360603
       51.60334       58.26662936        1.29048716
       51.70303       60.28029852        1.39400337
       51.80273       61.18751286        1.28830495
       51.90242       58.80923360        1.17995260
       52.00211       63.40715050        1.23120437
       52.10181       61.54367872        1.25128645
       52.20150       62.04794696        1.38366629
       52.30119       62.16502013        1.33414670
       52.40089       62.37301445        1.31546056
       52.50058       61.46035760        1.33042707
       52.60027       58.72467863        1.31811618
       52.69997       61.26471401        1.47557896
       52.79966       64.20675903        1.27013453
       52.89935       66.89759119        1.25106314
       52.99905       75.89348743        1.35466685
       53.09874       86.26505743        1.49121777
       53.19844       96.18873346        1.80356241
       53.29813      110.78980970        1.72071838
       53.39782      123.00720123        1.87606893
       53.49752      132.89824924        1.95921300
       53.59721      142.98664808        2.03107547
       53.69690      146.73605131        2.25771463
       53.79660      151.97784038        1.92498427
       53.89629      152.84435745        1.90970416
       53.99598      143.45462666        1.89483053
       54.09568      134.80398968        1.91777820
       54.19537      123.73996896        2.00338363
       54.29506      118.27425459        1.79928580
       54.39476      105.19890654        1.70949884
       54.49445       96.28879746        1.63630549
       54.59414       92.74185608        1.63023120
       54.69384       87.77014222        1.69163050
       54.79353       84.36805316        1.42209915
       54.89322       82.73756838        1.40316707
       54.99292       79.93563638        1.41948366
       55.09261       75.47527016        1.43422039
       55.19230       72.18274486        1.50609259
       55.29200       68.42555633        1.36467491
       55.39169       60.57489832        1.32453593
       55.49138       59.01887802        1.30251595
       55.59108       56.96306707        1.32058609
       55.69077       55.84277606        1.34183469
       55.79046       55.54852429        1.17003361
       55.89016       56.77287665        1.18008263
       55.98985       57.30585697        1.19323127
       56.08954       59.86608488        1.25989465
       56.18924       66.04358264        1.42840349
       56.28893       70.28043943        1.34872990
       56.38862       82.54003088        1.51242055
       56.48832       95.03044330        1.65126717
       56.58801      101.73763343        1.75814971
       56.68770      108.83274084        1.87710000
       56.78740      114.98040823        1.65151736
       56.88709      115.38228904        1.67094196
       56.98679      105.37338765        1.59778686
       57.08648       95.92820483        1.61569240
       57.18617       88.63018571        1.60781606
       57.28587       75.43015848        1.38535527
       57.38556       67.39566891        1.39370523
       57.48525       61.34401696        1.35500141
       57.58495       56.17436551        1.32617392
       57.68464       52.83051725        1.29718582
       57.78433       52.48223006        1.13102647
       57.88403       50.73061480        1.12488666
       57.98372       53.95223431        1.17866073
       58.08341       53.54366559        1.26955298
       58.18311       52.92964331        1.29117369
       58.28280       52.63573660        1.21274850
       58.38249       50.84052828        1.24533197
       58.48219       51.01295919        1.27438636
       58.58188       50.90054480        1.28689818
       58.68157       52.37222791        1.27921749
       58.78127       53.16403469        1.12739314
       58.88096       53.15282068        1.11064110
       58.98065       54.65973343        1.16922162
       59.08035       53.96930684        1.23968304
       59.18004       56.89472373        1.29130421
       59.27973       59.74981647        1.24864037
       59.37943       61.29747493        1.30645458
       59.47912       66.30589046        1.41469946
       59.57881       73.06016468        1.55600072
       59.67851       74.70277081        1.46691784
       59.77820       82.20050623        1.41485557
       59.87789       92.39821771        1.49513658
       59.97759       99.89432104        1.62653208
       60.07728      105.98017431        1.81454370
       60.17697      106.38502620        1.73185872
       60.27667      106.65900477        1.68594395
       60.37636      104.37743940        1.70002972
       60.47605      104.17703023        1.77184241
       60.57575       98.70881806        1.88990018
       60.67544       94.23877810        1.58631460
       60.77514       86.63605717        1.44568079
       60.87483       77.49937459        1.34046503
       60.97452       72.42480231        1.36498148
       61.07422       72.58321930        1.53511659
       61.17391       67.55222181        1.28263950
       61.27360       66.24426243        1.31520478
       61.37330       67.30269382        1.37488647
       61.47299       69.40849096        1.45769947
       61.57268       69.29815174        1.65633871
       61.67238       70.02476570        1.35704631
       61.77207       69.41023624        1.31582267
       61.87176       69.66716667        1.30358001
       61.97146       69.27423127        1.34955399
       62.07115       70.44955862        1.54143610
       62.17084       69.18290470        1.33823376
       62.27054       64.41486660        1.34618933
       62.37023       64.13631001        1.39677457
       62.46992       67.51623044        1.48240085
       62.56962       67.68135087        1.66700201
       62.66931       67.65590689        1.34266907
       62.76900       72.85771282        1.35827924
       62.86870       84.26435004        1.42938464
       62.96839       91.38472570        1.53633840
       63.06808       98.22497808        1.77287531
       63.16778      105.89416271        1.63436680
       63.26747      109.40183293        1.71917109
       63.36716      114.88748774        1.82853487
       63.46686      122.88104647        1.94823344
       63.56655      125.42152990        2.09111042
       63.66624      133.40435032        1.83340666
       63.76594      147.30095233        1.87207806
       63.86563      160.50053371        1.94878471
       63.96532      170.23555539        2.10067813
       64.06502      175.54947712        2.28566876
       64.16471      174.37157424        2.10704293
       64.26440      162.36456499        2.11593048
       64.36410      150.73755847        2.07942887
       64.46379      138.15032381        2.10475149
       64.56349      122.76748973        2.01864902
       64.66318      102.89360147        1.61667344
       64.76287       86.84332353        1.46633169
       64.86257       72.79446178        1.33994357
       64.96226       63.64349721        1.31202579
       65.06195       58.92653145        1.36494156
       65.16165       54.83863339        1.18765730
       65.26134       54.96277921        1.21684695
       65.36103       51.13009246        1.22451804
       65.46073       51.69162713        1.27170172
       65.56042       53.44014310        1.35057496
       65.66011       53.78979444        1.18150521
       65.75981       58.48695680        1.21988882
       65.85950       60.75707417        1.23549646
       65.95919       61.62327128        1.30252000
       66.05889       65.96247676        1.39407996
       66.15858       70.95633470        1.37512133
       66.25827       77.77213960        1.48911817
       66.35797       87.41305478        1.64498075
       66.45766       94.97751434        1.82211956
       66.55735      108.09622313        1.94393712
       66.65705      124.43827487        1.85079894
       66.75674      137.89345739        1.89903201
       66.85643      149.80846509        1.95731652
       66.95613      161.29494535        2.11226429
       67.05582      168.12495247        2.17308135
       67.15551      168.17400639        2.06824116
       67.25521      165.44450045        2.15316022
       67.35490      150.95994084        2.16448937
       67.45459      137.57863220        2.17869309
       67.55429      123.96944926        1.98104033
       67.65398      105.57558376        1.63807324
       67.75367       88.06992087        1.48326244
       67.85337       80.02216825        1.43102662
       67.95306       75.34972776        1.48468321
       68.05275       75.91417885        1.41111722
       68.15245       80.80201707        1.44348493
       68.25214       87.88555477        1.59810487
       68.35184       91.28643483        1.69746738
       68.45153       98.50746016        1.94148768
       68.55122      108.60102971        1.75657626
       68.65092      120.92651854        1.72823918
       68.75061      123.18716659        1.76230565
       68.85030      126.30774968        1.81897789
       68.95000      126.02175372        2.05994542
       69.04969      124.09070865        1.72624748
       69.14938      115.11712771        1.70934604
       69.24908      100.95650579        1.70890352
       69.34877       95.14312525        1.71570692
       69.44846       84.93723711        1.87985676
       69.54816       76.68444657        1.39239643
       69.64785       66.83970719        1.28132563
       69.74754       60.08488298        1.22685419
       69.84724       52.31450799        1.17434621
       69.94693       51.52494463        1.31526497
       70.04662       51.88056138        1.08534602
       70.14632       47.83765033        1.08359219
       70.24601       45.79259666        1.13508495
       70.34570       48.40965133        1.23509754
       70.44540       49.07617168        1.46525507
       70.54509       49.94879896        1.15709220
       70.64478       51.37300775        1.17186246
       70.74448       48.43461694        1.15577096
       70.84417       50.07427793        1.21952651
       70.94386       49.94396100        1.33694892
       71.04356       50.83879109        1.11622362
       71.14325       54.35714108        1.19956900
       71.24294       53.66942331        1.25409996
       71.34264       51.76891403        1.30593286
       71.44233       53.88346095        1.48685496
       71.54202       53.13743967        1.20204548
       71.64172       55.94150382        1.19985961
       71.74141       52.19271016        1.13777838
       71.84110       53.41752084        1.19157049
       71.94080       53.77004737        1.30273363
       72.04049       51.09056918        1.07470946
       72.14019       51.25127277        1.12151054
       72.23988       52.11735489        1.18335847
       72.33957       51.47488915        1.31361662
       72.43927       54.06976626        1.48216382
       72.53896       53.45792960        1.18160696
       72.63865       54.10158928        1.16192591
       72.73835       54.74922159        1.14317879
       72.83804       56.77331813        1.22935429
       72.93773       59.59170272        1.33799726
       73.03743       62.34739119        1.18805995
       73.13712       61.00237318        1.23925193
       73.23681       61.55298994        1.30783393
       73.33651       62.94462985        1.45532656
       73.43620       65.65577685        1.61006863
       73.53589       63.70294985        1.27927577
       73.63559       64.46195688        1.26670038
       73.73528       64.15899586        1.25796499
       73.83497       66.36866855        1.35652700
       73.93467       62.51656047        1.38616553
       74.03436       66.63499165        1.26669912
       74.13405       63.74022931        1.29141963
       74.23375       62.97682405        1.33708319
       74.33344       63.21645019        1.47475520
       74.43313       63.11079948        1.52901159
       74.53283       65.57332583        1.32432515
       74.63252       67.89465335        1.33790373
       74.73221       69.67087385        1.34874192
       74.83191       77.24378566        1.50687688
       74.93160       75.69181758        1.50836341
       75.03129       80.61549162        1.38410895
       75.13099       84.04537063        1.46395982
       75.23068       89.83792235        1.57900033
       75.33037       95.24902101        1.78738950
       75.43007      103.16673807        1.88744202
       75.52976      108.18803704        1.67898056
       75.62945      120.79977124        1.77320606
       75.72915      126.70310433        1.80903263
       75.82884      135.97734993        2.01826309
       75.92854      136.99086284        1.90165549
       76.02823      143.18893162        1.82369544
       76.12792      148.51536325        1.94155502
       76.22762      152.33225291        2.07485001
       76.32731      151.47347885        2.33661156
       76.42700      152.75105677        2.21472463
       76.52670      146.91323384        2.00338298
       76.62639      139.10911630        1.92435030
       76.72608      132.91703837        1.84952001
       76.82578      122.44237697        2.04477933
       76.92547      122.85435560        1.64063359
       77.02516      123.53175264        1.70517245
       77.12486      120.51326400        1.76903267
       77.22455      126.88860138        1.93319518
       77.32424      126.69928886        2.37313566
       77.42394      134.38639201        1.95199950
       77.52363      134.12625122        1.88439228
       77.62332      139.03333157        1.91004765
       77.72302      143.29413091        1.94370638
       77.82271      146.24280747        2.30300341
       77.92240      147.13742530        1.76892607
       78.02210      149.40677484        1.92355616
       78.12179      144.07587585        2.01712281
       78.22148      139.30724638        2.09714504
       78.32118      135.47106355        2.39944429
       78.42087      128.06188958        1.83564045
       78.52056      124.76655762        1.87095048
       78.62026      117.77362114        1.80315666
       78.71995      109.71732137        1.74583447
       78.81964      103.36213782        1.89242711
       78.91934       92.73669607        1.38851225
       79.01903       83.52154511        1.44429219
       79.11872       76.51656846        1.43838018
       79.21842       70.74215240        1.47512343
       79.31811       67.99894231        1.62893303
       79.41780       67.79880297        1.31944765
       79.51750       62.40165908        1.28598903
       79.61719       65.08056961        1.31729175
       79.71689       64.81419300        1.36484588
       79.81658       63.72552069        1.43454168
       79.91627       63.72685190        1.21600345
       80.01597       62.37878844        1.23652539
       80.11566       64.89516991        1.31854926
       80.21535       62.98625066        1.38848855
       80.31505       64.59615055        1.67163472
       80.41474       65.78570126        1.29633760
       80.51443       67.38312956        1.30630796
       80.61413       72.51571785        1.40033169
       80.71382       76.44544004        1.48751049
       80.81351       82.83516160        1.74028906
       80.91321       91.54456353        1.34944952
       81.01290      106.88906204        1.57477225
       81.11259      125.59766343        1.84332727
       81.21229      139.98979606        2.10553209
       81.31198      156.32054384        2.48280815
       81.41167      172.52232523        2.04276496
       81.51137      201.04725408        2.27004279
       81.61106      213.08728239        2.44057704
       81.71075      231.67140495        2.63484418
       81.81045      236.60680413        2.82090275
       81.91014      255.37775144        2.25428970
       82.00983      272.25071346        2.48863733
       82.10953      277.81700420        2.81235699
       82.20922      293.39204071        3.21556486
       82.30891      294.89927816        3.38031912
       82.40861      292.99760812        2.73973538
       82.50830      289.71584668        2.71699695
       82.60799      282.59340465        2.88987286
       82.70769      286.26619473        3.16574253
       82.80738      286.31047173        3.02501125
       82.90707      283.69966061        2.44510418
       83.00677      273.42818874        2.55712334
       83.10646      260.93940134        2.93855144
       83.20615      249.93468295        3.20053237
       83.30585      237.36653772        2.95411398
       83.40554      221.62961107        2.37261351
       83.50524      201.76582201        2.20812508
       83.60493      186.43500706        2.33784662
       83.70462      172.69003892        2.53660724
       83.80432      161.46654651        2.14322037
       83.90401      133.65632773        1.63462658
       84.00370      112.16471785        1.56109353
       84.10340       96.01088037        1.72526194
       84.20309       89.20984369        2.01870255
       84.30278       83.49837022        1.58813969
       84.40248       75.40992290        1.33172073
       84.50217       71.25426244        1.26981420
       84.60186       70.56279334        1.42883690
       84.70156       63.32878832        1.77087607
       84.80125       65.91057505        1.25791051
       84.90094       65.27467131        1.12451417
       85.00064       62.49625824        1.13354869
       85.10033       66.11091321        1.37995264
       85.20002       66.43897867        2.37265075
       85.29972       65.34193677        1.24116400
       85.39941       67.04267491        1.28186343
       85.49910       64.46468817        1.22226565
       85.59880       67.22664465        1.40366413
       85.69849       59.93886530        2.37894073
       85.79818       65.25026145        1.17044392
       85.89788       66.32889301        1.15192637
       85.99757       66.68142077        1.18676312
       86.09726       63.83731187        1.33307076
       86.19696       59.15800340        2.46433512
       86.29665       61.09790000        1.18524024
       86.39634       61.57693506        1.21054830
       86.49604       59.10073323        1.16792128
       86.59573       58.60733203        1.23917747
       86.69542       58.42919727        2.58691233
       86.79512       56.11108021        1.05224760
       86.89481       53.45152933        1.01244057
       86.99451       52.60537766        1.04106761
       87.09420       53.46855271        1.17059595
       87.19389       55.84293907        2.83402024
       87.29359       52.98566662        1.11867022
       87.39328       50.00300795        1.10129485
       87.49297       50.88243220        1.07850006
       87.59267       49.92778008        1.08930611
       87.69236       46.13287678        3.13278175
       87.79205       50.16300316        1.01777875
       87.89175       49.65192900        1.00441054
       87.99144       49.53527214        1.04537521
       88.09113       51.57212615        1.13380353
       88.19083       49.25063050        5.86270986
       88.29052       48.89943260        1.11088572
       88.39021       47.46024160        1.10165504
       88.48991       48.54225806        1.06930214
       88.58960       45.99768996        1.00792999
       88.68929       42.32535954        7.48895779
       88.78899       49.54289911        1.00981133
       88.88868       49.98076257        0.99212730
       88.98837       50.18279748        1.03399503
       89.08807       49.45901947        1.05140237
       89.18776       50.15962117        8.61538539
       89.28745       52.22546532        1.09781193
       89.38715       53.11618844        1.11854107
       89.48684       54.84172106        1.11231280
       89.58653       56.14080502        1.10259483
       89.68623       47.80963397        8.24624671
       89.78592       59.41141260        1.10225800
       89.88561       60.34139406        1.08907695
       89.98531       62.22442285        1.13409264
       90.08500       70.27855572        1.25036094
       90.18469       69.99840983       10.40722893
       90.28439       73.55466054        1.30655464
       90.38408       81.49644574        1.39872691
       90.48377       83.85335951        1.39224813
       90.58347       88.56497574        1.40853421
       90.68316       93.19278797       11.25658614
       90.78286       91.74914424        1.37245395
       90.88255       94.01365000        1.35192573
       90.98224       97.84732026        1.42716568
       91.08194       98.55368055        1.47933534
       91.18163      111.69014659       12.57258674
       91.28132       97.13708867        1.51205764
       91.38102       98.51399154        1.56322347
       91.48071       95.37455344        1.50020664
       91.58040       93.48112687        1.43632290
       91.68010       79.94786716       10.04419413
       91.77979       88.44365290        1.34092026
       91.87948       83.35470532        1.28144392
       91.97918       81.03885296        1.31194140
       92.07887       79.99130949        1.35771807
       92.17856       87.88884840       10.82388128
       92.27826       78.64765572        1.39035512
       92.37795       76.49381826        1.40360648
       92.47764       77.98694877        1.34545654
       92.57734       78.14892164        1.30659332
       92.67703       86.15645462        8.90786939
       92.77672       79.66002613        1.27147471
       92.87642       82.76417694        1.27140026
       92.97611       85.72459872        1.35127006
       93.07580       89.16098118        1.57302479
       93.17550       93.48543025        3.02924946
       93.27519       93.35917956        1.48385262
       93.37488       91.40583321        1.42714213
       93.47458       96.96697178        1.48636632
       93.57427       98.79920055        1.73469536
       93.67396      100.93333859        2.36965462
       93.77366       97.11431954        1.43972668
       93.87335      100.05859998        1.39605598
       93.97304       95.24526815        1.41920596
       94.07274       89.22985118        1.78304123
       94.17243       89.98934875        2.04318025
       94.27212       91.57293110        1.53521040
       94.37182       90.16276305        1.48457561
       94.47151       87.66268966        1.40177115
       94.57121       89.13610347        1.86558695
       94.67090       86.69740685        1.86103832
       94.77059       85.41006429        1.43587303
       94.87029       77.59525328        1.24418823
       94.96998       73.05548517        1.22234733
       95.06967       69.63266272        1.37553642
       95.16937       67.49062857        1.85365043
       95.26906       68.16488129        1.43916357
       95.36875       65.60492513        1.28102422
       95.46845       59.44193339        1.17161566
       95.56814       58.04782691        1.33220256
       95.66783       58.75240502        1.50576244
       95.76753       58.62950527        1.24300224
       95.86722       54.97068784        1.02366568
       95.96691       53.70026858        1.04941144
       96.06661       54.12745613        1.34967466
       96.16630       52.14664527        1.41261074
       96.26599       52.52310148        1.27320423
       96.36569       50.33036587        1.11823232
       96.46538       50.91149135        1.08542769
       96.56507       47.30817518        1.29125787
       96.66477       46.93328555        1.25322656
       96.76446       47.35040853        1.12488847
       96.86415       46.16045680        0.96201027
       96.96385       47.51234714        1.00809905
       97.06354       48.69936119        1.38013710
       97.16323       51.04707204        1.35117529
       97.26293       47.43149873        1.22349162
       97.36262       46.95566075        1.12727581
       97.46231       47.10204391        1.03869454
       97.56201       50.38989808        1.36697321
       97.66170       51.52370715        1.24158355
       97.76139       51.52107154        1.12793493
       97.86109       53.41799671        1.03860994
       97.96078       55.61928697        1.08302818
       98.06047       56.59596987        1.51750838
       98.16017       54.07181502        1.31846575
       98.25986       55.43276612        1.27518063
       98.35956       57.56909920        1.22695642
       98.45925       60.08874730        1.17013382
       98.55894       65.14234510        1.58956213
       98.65864       64.39091396        1.35593896
       98.75833       64.11860139        1.26424769
       98.85802       70.43490188        1.23750064
       98.95772       70.32766560        1.22829940
       99.05741       68.84013171        1.68696195
       99.15710       72.29196464        1.48689079
       99.25680       74.88727572        1.46627559
       99.35649       78.01036552        1.42549311
       99.45618       83.26979289        1.37273397
       99.55588       83.54474831        1.83726734
       99.65557       85.33048818        1.53193267
       99.75526       85.28282401        1.43542700
       99.85496       88.95304485        1.39547540
       99.95465       86.39816967        1.34818477
      100.05434       86.38486087        1.92044709
      100.15404       84.50907296        1.59981577
      100.25373       85.61135815        1.59099319
      100.35342       85.93226218        1.58776019
      100.45312       83.40647612        1.42725526
      100.55281       86.32303309        1.90725900
      100.65250       84.07146416        1.53325000
      100.75220       81.54982356        1.39863756
      100.85189       80.29545167        1.32602523
      100.95158       78.42870515        1.27542238
      101.05128       83.79592198        1.87991490
      101.15097       76.01364911        1.47939760
      101.25066       78.77087509        1.48807938
      101.35036       77.16954909        1.48556079
      101.45005       76.66142626        1.39233594
      101.54974       72.41333798        1.68521548
      101.64944       75.12160823        1.40053453
      101.74913       74.52026865        1.31428598
      101.84882       76.88293716        1.29958298
      101.94852       79.07217047        1.38839676
      102.04821       78.00880001        1.66093624
      102.14791       78.76241510        1.50413764
      102.24760       77.63898786        1.48070210
      102.34729       80.55606681        1.50226110
      102.44699       81.53869509        1.53772637
      102.54668       82.08162861        1.61896111
      102.64637       83.08221420        1.45476821
      102.74607       82.90166787        1.38395973
      102.84576       82.79141217        1.35677187
      102.94545       85.48056966        1.57033988
      103.04515       87.29641603        1.68007423
      103.14484       81.73576522        1.51858922
      103.24453       83.83959114        1.51439254
      103.34423       84.05035988        1.50403185
      103.44392       84.67515472        1.63529135
      103.54361       84.20141867        1.58412273
      103.64331       84.81476022        1.44724696
      103.74300       84.65200570        1.37914578
      103.84269       88.37507438        1.38493554
      103.94239       86.66530292        1.64802720
      104.04208       82.01597816        1.55075351
      104.14177       83.81235374        1.52527431
      104.24147       82.34426121        1.51100969
      104.34116       83.76095308        1.53349004
      104.44085       78.98681010        1.69102513
      104.54055       79.30741310        1.53415962
      104.64024       79.38085358        1.44277283
      104.73993       74.39102300        1.33257786
      104.83963       75.98288839        1.29759038
      104.93932       72.86728851        1.54030514
      105.03901       72.27121080        1.44537037
      105.13871       71.68841441        1.38606514
      105.23840       68.47041655        1.35366750
      105.33809       67.86636317        1.35560989
      105.43779       68.59757522        1.58582235
      105.53748       70.77445571        1.44464988
      105.63717       65.31715902        1.27186976
      105.73687       62.69639473        1.18577718
      105.83656       59.90109936        1.12928568
      105.93626       62.23315051        1.45879743
      106.03595       61.07819710        1.30976835
      106.13564       59.12878999        1.24546185
      106.23534       56.00761978        1.22693647
      106.33503       56.94874034        1.24974199
      106.43472       52.31983633        1.41593090
      106.53442       54.69893769        1.25937916
      106.63411       53.40349468        1.13034168
      106.73380       53.15808538        1.07483466
      106.83350       55.21846601        1.07919004
      106.93319       53.99416470        1.38331758
      107.03288       55.76680592        1.24605449
      107.13258       57.53794895        1.22860140
      107.23227       56.94281804        1.23994337
      107.33196       56.89233937        1.23598963
      107.43166       56.33551540        1.47778047
      107.53135       51.80667554        1.22250846
      107.63104       58.70431159        1.18524692
      107.73074       60.94444380        1.15872339
      107.83043       62.10515068        1.15496691
      107.93012       59.85343196        1.49979618
      108.02982       63.25144363        1.34962036
      108.12951       62.29077212        1.27360680
      108.22920       63.72664712        1.26761057
      108.32890       65.26427147        1.27065065
      108.42859       66.26684428        1.62504969
      108.52828       67.57490180        1.39204805
      108.62798       67.19579281        1.25868549
      108.72767       68.23311624        1.21746303
      108.82736       66.42540893        1.22761721
      108.92706       64.89040839        1.53661597
      109.02675       66.52981078        1.36123507
      109.12644       63.67483182        1.29963426
      109.22614       65.10738112        1.31527293
      109.32583       64.27734393        1.42403160
      109.42552       64.45289840        1.50414600
      109.52522       66.69017225        1.38049562
      109.62491       65.07520589        1.29701434
      109.72461       65.57270521        1.24477225
      109.82430       61.83603856        1.12901623
      109.92399       60.49288193        1.45183221
      110.02369       60.16765450        1.26794355
      110.12338       62.22029874        1.28108155
      110.22307       58.52303768        1.23297761
      110.32277       59.03987183        1.26464065
      110.42246       60.60012006        1.55792959
      110.52215       57.89985274        1.28965520
      110.62185       54.88449610        1.18324722
      110.72154       53.33077640        1.08811597
      110.82123       54.74645866        1.13863955
      110.92093       52.63144281        1.30202284
      111.02062       56.27131776        1.24393763
      111.12031       55.82485806        1.24822455
      111.22001       53.96476293        1.20418344
      111.31970       61.23520259        1.39248212
      111.41939       58.95870539        1.41374560
      111.51909       57.34582452        1.26506187
      111.61878       60.29627625        1.22210959
      111.71847       62.24843898        1.15537225
      111.81817       62.71731077        1.25871831
      111.91786       66.05370099        1.35958177
      112.01755       67.06054421        1.33768106
      112.11725       71.19560870        1.38894725
      112.21694       71.60369317        1.38668662
      112.31663       74.13833194        1.55500850
      112.41633       75.52796378        1.54194851
      112.51602       77.22760811        1.43591756
      112.61571       79.12402088        1.38656339
      112.71541       83.41325056        1.34183240
      112.81510       86.12063937        1.52892724
      112.91479       90.50534586        1.59684690
      113.01449       87.81104621        1.54011709
      113.11418       90.04855083        1.55452495
      113.21387       88.98812382        1.53825742
      113.31357       93.47872815        1.75120380
      113.41326       90.51158376        1.63745520
      113.51296       92.42751662        1.55659436
      113.61265       91.31604389        1.49284109
      113.71234       91.34139342        1.42612001
      113.81204       90.34190413        1.62479543
      113.91173       92.52885488        1.59352299
      114.01142       88.51765897        1.54268373
      114.11112       88.02640839        1.53755468
      114.21081       88.40254560        1.55200164
      114.31050       89.84679578        1.77444011
      114.41020       88.05385252        1.62313576
      114.50989       87.30886205        1.51303964
      114.60958       85.75023515        1.45098435
      114.70928       85.17862367        1.39474326
      114.80897       83.12959153        1.56264082
      114.90866       86.50064619        1.50365196
      115.00836       82.36894514        1.46023124
      115.10805       87.58461098        1.51423226
      115.20774       84.88277227        1.51310865
      115.30744       88.42528742        1.77342870
      115.40713       87.93820660        1.60184201
      115.50682       85.14222713        1.48788102
      115.60652       86.74459805        1.44748990
      115.70621       87.62654754        1.39823945
      115.80590       91.20064828        1.66430204
      115.90560       96.17092673        1.54929739
      116.00529       94.56470608        1.55335883
      116.10498       98.75470567        1.60422138
      116.20468       98.42819261        1.63831938
      116.30437       99.15588349        1.96023326
      116.40406      102.60979451        1.73697171
      116.50376      100.79599718        1.62675332
      116.60345      102.52940571        1.57502513
      116.70314      109.51030588        1.57876730
      116.80284      112.76005588        1.90372656
      116.90253      117.96313875        1.75188208
      117.00222      122.01646515        1.76788454
      117.10192      128.79804982        1.86545732
      117.20161      125.83678639        1.86614085
      117.30131      129.80058276        2.26827663
      117.40100      134.11915406        1.93869928
      117.50069      137.47587381        1.86441799
      117.60039      141.72765174        1.81190564
      117.70008      147.58910602        1.79163063
      117.79977      155.58139183        2.25474763
      117.89947      154.62503826        1.95402002
      117.99916      157.77017904        1.99754996
      118.09885      160.89266966        2.05526635
      118.19855      156.09611269        2.11997437
      118.29824      164.52869210        2.38670115
      118.39793      167.67822712        2.18782245
      118.49763      173.71936071        2.10180736
      118.59732      176.82674952        2.04754241
      118.69701      175.64249141        2.12576722
      118.79671      177.24965075        2.30594301
      118.89640      180.03165931        2.16697309
      118.99609      171.82227583        2.11411864
      119.09579      174.23287925        2.15389268
      119.19548      179.19918294        2.38719550
      119.29517      176.12301614        2.45847224
      119.39487      174.92259289        2.25217854
      119.49456      175.44962092        2.12561065
      119.59425      171.43723310        2.04027698
      119.69395      167.58758080        2.12792401
      119.79364      158.01135046        2.08748711
      119.89333      156.82030455        2.01259794
      119.99303      153.24695280        1.94225284
      120.09272      146.83079747        1.94405171
      120.19241      142.42204470        2.15176445
      120.29211      138.34650987        2.09883031
      120.39180      137.35582437        1.99512370
      120.49149      135.58112761        1.84342441
      120.59119      128.57328186        1.74196364
      120.69088      125.81054946        1.85479670
      120.79057      125.27133825        1.81105116
      120.89027      123.33916152        1.76414517
      120.98996      122.58509619        1.74518158
      121.08966      117.84255306        1.72361265
      121.18935      118.55798304        1.98174457
      121.28904      120.34354904        1.94611940
      121.38874      117.32891396        1.81694681
      121.48843      117.59914285        1.71811319
      121.58812      117.91716047        1.64087929
      121.68782      115.14394461        1.79613792
      121.78751      114.85914360        1.70941114
      121.88720      114.68264455        1.68624801
      121.98690      113.48686907        1.68993138
      122.08659      112.91823493        1.71941561
      122.18628      108.58374744        1.95566877
      122.28598      108.20162315        1.83582686
      122.38567      113.90858705        1.80436772
      122.48536      109.70395407        1.67476712
      122.58506      108.57813051        1.57795862
      122.68475      108.86804625        1.79051572
      122.78444      109.90657669        1.69405205
      122.88414      106.58001593        1.65386404
      122.98383      104.76372434        1.67320209
      123.08352      103.30949385        1.64725682
      123.18322      107.03171425        1.95578279
      123.28291      101.60012297        1.73148868
      123.38260      101.61134139        1.67161151
      123.48230      102.38131063        1.61725666
      123.58199       99.18939234        1.48768958
      123.68168      100.32218596        1.70734222
      123.78138       93.38995440        1.48583884
      123.88107       91.06883722        1.43321668
      123.98076       90.83135742        1.45781246
      124.08046       87.89829218        1.41882598
      124.18015       87.23316947        1.59978965
      124.27984       89.07986478        1.44849278
      124.37954       87.59421523        1.35532744
      124.47923       84.11314242        1.29642603
      124.57893       80.33873170        1.34968505
