        5.04651       54.79338199        2.52468304
        5.14621       55.61653442        2.45144810
        5.24590       57.08764933        2.44816852
        5.34559       52.82056629        2.15950311
        5.44529       51.16495071        2.31209615
        5.54498       48.81610619        1.89956045
        5.64467       48.55996802        1.87799415
        5.74437       48.78733907        1.69921989
        5.84406       53.05601540        1.79352729
        5.94375       50.87707114        1.75382358
        6.04345       48.05726781        1.65610489
        6.14314       52.32864719        1.58254102
        6.24283       49.75596427        1.59394446
        6.34253       49.39447290        1.51474234
        6.44222       52.33638327        1.64194998
        6.54191       48.54451904        1.49788664
        6.64161       46.97220008        1.39575892
        6.74130       49.97684433        1.44567609
        6.84099       47.70773674        1.40213712
        6.94069       47.34555808        1.41781969
        7.04038       48.39313248        1.32319839
        7.14007       47.07431667        1.30227760
        7.23977       48.59451777        1.30007441
        7.33946       49.70583848        1.33503532
        7.43915       49.50924488        1.31499740
        7.53885       48.80429205        1.28148092
        7.63854       50.07862753        1.24075387
        7.73823       48.06223600        1.26205503
        7.83793       48.37073164        1.22523198
        7.93762       47.75337878        1.26988346
        8.03732       49.66852058        1.16155571
        8.13701       49.61548738        1.15569284
        8.23670       48.33125302        1.15668066
        8.33640       47.97684689        1.15273408
        8.43609       48.89527265        1.21665542
        8.53578       48.83483482        1.13254048
        8.63548       46.58540869        1.09334910
        8.73517       47.02017420        1.07752005
        8.83486       49.03344291        1.10310426
        8.93456       47.10370147        1.07555361
        9.03425       49.63852310        1.07187813
        9.13394       48.38532228        1.06020662
        9.23364       48.78797701        1.08016867
        9.33333       49.21710480        1.10701433
        9.43302       48.04287653        1.09409068
        9.53272       46.47929062        1.03972422
        9.63241       46.58579741        1.07034055
        9.73210       46.72315992        1.06977396
        9.83180       48.36416182        1.13416855
        9.93149       46.25971219        1.10119738
       10.03118       47.14330142        1.06966687
       10.13088       49.50696609        1.06997731
       10.23057       49.24454823        1.11750027
       10.33026       47.83162588        1.13837683
       10.42996       48.58020474        1.13156110
       10.52965       50.55787276        1.11802504
       10.62934       48.81346419        1.10113974
       10.72904       47.78334558        1.10553130
       10.82873       47.98155422        1.10224703
       10.92842       50.28518776        1.14740386
       11.02812       50.93629402        1.10022388
       11.12781       49.67386683        1.12542695
       11.22750       49.46670887        1.13425851
       11.32720       50.96338590        1.18231905
       11.42689       50.15899933        1.13222394
       11.52658       52.27295230        1.14214653
       11.62628       54.35650163        1.17741021
       11.72597       56.13193088        1.22197381
       11.82567       59.30617987        1.29112233
       11.92536       58.83789696        1.20345745
       12.02505       65.99090143        1.28076909
       12.12475       71.22119334        1.32959096
       12.22444       79.16146518        1.48677767
       12.32413       89.63402220        1.60670257
       12.42383       96.43464161        1.58206012
       12.52352      112.93835844        1.70224017
       12.62321      134.87883892        1.91407411
       12.72291      156.82437306        2.00926310
       12.82260      179.67319361        2.33876277
       12.92229      198.07279071        2.23070383
       13.02199      229.25932590        2.38217793
       13.12168      257.68280696        2.57030257
       13.22137      286.75516278        2.80018359
       13.32107      312.20448068        3.01637492
       13.42076      331.88792574        2.99363260
       13.52045      355.38365648        3.13588242
       13.62015      365.65754957        3.08335616
       13.71984      352.36821801        3.15406604
       13.81953      317.72297959        3.04428668
       13.91923      280.82971094        2.68779329
       14.01892      219.61038627        2.31263898
       14.11861      168.24021869        2.11100820
       14.21831      138.39675825        1.91640789
       14.31800      107.68367058        1.77893279
       14.41769       80.07836204        1.47668119
       14.51739       71.85404631        1.36470843
       14.61708       60.88284520        1.25910444
       14.71677       54.90870567        1.21510415
       14.81647       50.84208876        1.22474401
       14.91616       51.92248247        1.13826219
       15.01585       51.93798917        1.15896333
       15.11555       47.45351990        1.12046396
       15.21524       50.46205313        1.19098110
       15.31493       48.77028383        1.19901021
       15.41463       48.70498555        1.16013399
       15.51432       48.80680695        1.12536606
       15.61402       47.42330073        1.13733587
       15.71371       46.10320178        1.11363990
       15.81340       47.25263240        1.17291204
       15.91310       47.12470637        1.13811863
       16.01279       48.53731742        1.10600476
       16.11248       47.29568032        1.12103581
       16.21218       43.92586689        1.11016844
       16.31187       47.46361105        1.15697463
       16.41156       47.31031219        1.13358988
       16.51126       48.03493742        1.16158125
       16.61095       49.15801543        1.13309231
       16.71064       47.22320392        1.14560349
       16.81034       49.21320015        1.17311378
       16.91003       53.14540030        1.18408630
       17.00972       57.24255507        1.17988945
       17.10942       58.60695754        1.26190191
       17.20911       61.10581283        1.30000076
       17.30880       63.41327135        1.33590101
       17.40850       66.86158302        1.37155562
       17.50819       72.05062873        1.38272724
       17.60788       76.76628489        1.47180494
       17.70758       74.28009316        1.45361245
       17.80727       76.37460279        1.49227216
       17.90696       69.44062545        1.33007971
       18.00666       66.83189655        1.32765573
       18.10635       61.10993992        1.23462636
       18.20604       57.16027183        1.30974810
       18.30574       56.95898486        1.24607777
       18.40543       54.67705577        1.19056454
       18.50512       53.15134603        1.21081984
       18.60482       52.63980854        1.18605967
       18.70451       51.23582935        1.23649212
       18.80420       49.74694503        1.14453502
       18.90390       50.67154405        1.14282840
       19.00359       49.07469657        1.09521627
       19.10328       51.03981126        1.18177984
       19.20298       48.70653751        1.19027603
       19.30267       47.62413481        1.13023078
       19.40237       47.63490161        1.11756585
       19.50206       45.69155727        1.12197381
       19.60175       46.73077675        1.12197928
       19.70145       45.56875998        1.16173230
       19.80114       45.95678212        1.10652965
       19.90083       44.99598175        1.05786441
       20.00053       47.23321946        1.10316259
       20.10022       45.92207528        1.09577170
       20.19991       47.47628475        1.19122659
       20.29961       48.04960722        1.13551103
       20.39930       48.65880343        1.17723133
       20.49899       49.74305719        1.16964115
       20.59869       51.66212520        1.21386581
       20.69838       54.59320667        1.29397385
       20.79807       53.29661922        1.21939230
       20.89777       55.37068807        1.21486307
       20.99746       55.91276382        1.23295711
       21.09715       55.35180486        1.29214029
       21.19685       58.60860755        1.32283215
       21.29654       55.79550205        1.25894100
       21.39623       59.81345422        1.30373524
       21.49593       57.19313118        1.25652101
       21.59562       54.48212857        1.25579113
       21.69531       50.73351020        1.26028589
       21.79501       48.52255737        1.12742112
       21.89470       48.28977955        1.09939670
       21.99439       45.82707491        1.11630706
       22.09409       47.57498755        1.14028526
       22.19378       44.38455266        1.16953178
       22.29347       46.95334313        1.12041510
       22.39317       45.95467099        1.13711057
       22.49286       46.71930874        1.14564615
       22.59255       45.88882069        1.14873478
       22.69225       48.59130216        1.24579234
       22.79194       49.00960156        1.12365953
       22.89163       52.69652701        1.14252597
       22.99133       56.73487065        1.21854429
       23.09102       63.13129320        1.33524419
       23.19072       62.55395106        1.33223267
       23.29041       64.66250431        1.33773436
       23.39010       65.38593324        1.35932373
       23.48980       65.99034356        1.37057893
       23.58949       64.37864898        1.37181445
       23.68918       59.32177739        1.38449033
       23.78888       57.22863929        1.21180437
       23.88857       51.23659462        1.16136989
       23.98826       48.70937607        1.15755668
       24.08796       46.19084609        1.10517269
       24.18765       49.43445353        1.22521357
       24.28734       44.23979672        1.10333060
       24.38704       45.75206079        1.14084369
       24.48673       42.45540602        1.09491646
       24.58642       46.08234831        1.17862227
       24.68612       44.95185630        1.16249118
       24.78581       45.17330678        1.07426445
       24.88550       44.61245518        1.06711851
       24.98520       42.75458534        1.08323364
       25.08489       46.89534782        1.15729798
       25.18458       49.41733885        1.21307306
       25.28428       45.88204512        1.12644737
       25.38397       48.94771278        1.15794480
       25.48366       50.51472334        1.18343644
       25.58336       54.69469482        1.28370038
       25.68305       62.40168727        1.34514343
       25.78274       69.36804926        1.33879371
       25.88244       82.52273716        1.49756331
       25.98213      107.86203603        1.72717892
       26.08182      128.37811471        1.93441551
       26.18152      155.57409344        2.18214061
       26.28121      178.75732585        2.21338902
       26.38090      192.91624312        2.31925097
       26.48060      197.34698765        2.41072299
       26.58029      185.33774955        2.43663709
       26.67998      169.11161496        2.19788522
       26.77968      142.09791602        1.98989621
       26.87937      113.95632979        1.75563440
       26.97907       92.82341782        1.57070829
       27.07876       78.30799385        1.55291721
       27.17845       76.40173938        1.46584552
       27.27815       78.13260709        1.44769987
       27.37784       82.00500204        1.54110018
       27.47753       84.93533140        1.54536484
       27.57723       83.05386544        1.60071245
       27.67692       85.69687253        1.58726049
       27.77661       78.40407865        1.44878170
       27.87631       72.43608700        1.36923681
       27.97600       62.84316312        1.30376460
       28.07569       56.77138352        1.31131586
       28.17539       50.55499969        1.18441495
       28.27508       49.20994478        1.16902849
       28.37477       50.39588054        1.21124167
       28.47447       49.50242766        1.19104369
       28.57416       50.98949717        1.30692796
       28.67385       51.74754133        1.17138951
       28.77355       53.71533206        1.17199225
       28.87324       58.23081891        1.25295099
       28.97293       58.13304397        1.25481184
       29.07263       60.63629135        1.39706901
       29.17232       58.20365633        1.24900471
       29.27201       55.37040608        1.24061456
       29.37171       53.09097175        1.24959403
       29.47140       51.60788681        1.21774254
       29.57109       49.09456797        1.25935456
       29.67079       48.15379577        1.13543139
       29.77048       47.11455208        1.12567719
       29.87017       46.68046634        1.09847054
       29.96987       46.29018228        1.14693664
       30.06956       46.72816495        1.18887752
       30.16925       48.11362094        1.13593014
       30.26895       47.87103933        1.13738161
       30.36864       48.63833510        1.16522704
       30.46833       49.29941885        1.18503207
       30.56803       51.74394975        1.28255265
       30.66772       54.56839382        1.22576280
       30.76742       59.96929589        1.25949346
       30.86711       61.11112032        1.29680106
       30.96680       64.42609135        1.33935266
       31.06650       60.55745359        1.36137941
       31.16619       60.14616495        1.27565559
       31.26588       60.83290771        1.27524980
       31.36558       57.38398406        1.25464561
       31.46527       58.96359759        1.32339496
       31.56496       57.65487973        1.32957601
       31.66466       61.66960747        1.28613456
       31.76435       71.39561016        1.38283720
       31.86404       77.57505415        1.42271785
       31.96374       86.10997437        1.53408947
       32.06343       87.44324063        1.59983236
       32.16312       88.63026987        1.51374418
       32.26282       81.97267537        1.49106420
       32.36251       75.63388508        1.48931206
       32.46220       73.26692134        1.49206946
       32.56190       70.04070746        1.48461314
       32.66159       64.28785587        1.35047165
       32.76128       66.69387734        1.34477533
       32.86098       63.04336597        1.32692243
       32.96067       60.70266284        1.31826214
       33.06036       62.05126819        1.35721086
       33.16006       58.63040148        1.24228293
       33.25975       58.70321239        1.28344081
       33.35944       55.71532774        1.25699592
       33.45914       57.84261570        1.32958355
       33.55883       58.95848856        1.34554002
       33.65852       61.90700793        1.28581121
       33.75822       66.48761538        1.33038477
       33.85791       73.70983082        1.40673869
       33.95760       79.79555202        1.50705429
       34.05730       92.29396437        1.60552577
       34.15699      103.42190316        1.67288106
       34.25668      121.06565760        1.80426412
       34.35638      147.54394108        2.04421742
       34.45607      186.50351893        2.42202862
       34.55577      229.43782979        2.56105270
       34.65546      295.81475510        2.79088439
       34.75515      369.25101730        3.17957373
       34.85485      430.72531579        3.40988868
       34.95454      449.80437403        3.59423353
       35.05423      431.10126681        3.63799217
       35.15393      394.69950965        3.26870499
       35.25362      313.36610846        2.95508125
       35.35331      238.64520031        2.64397006
       35.45301      181.82898961        2.40703331
       35.55270      134.92202479        2.01769236
       35.65239      105.71807104        1.72435500
       35.75209       87.43151882        1.55618656
       35.85178       77.82677576        1.46594362
       35.95147       73.61064953        1.45912043
       36.05117       69.05627047        1.38400525
       36.15086       64.93441850        1.29028990
       36.25055       61.15146953        1.30804528
       36.35025       62.59715424        1.34942072
       36.44994       58.13892510        1.32627856
       36.54963       57.21158584        1.26294152
       36.64933       57.78836175        1.25037923
       36.74902       57.05354670        1.25535554
       36.84871       54.87221136        1.22214855
       36.94841       51.82354283        1.28430225
       37.04810       50.20427410        1.11453522
       37.14779       52.07008862        1.15840819
       37.24749       49.27750545        1.15815062
       37.34718       48.33116514        1.17619541
       37.44687       50.27075217        1.28865749
       37.54657       48.88745101        1.16010407
       37.64626       48.74478175        1.15396255
       37.74595       46.53207487        1.10975210
       37.84565       48.24195812        1.19566947
       37.94534       46.85099543        1.20033638
       38.04503       46.48064135        1.08058448
       38.14473       46.52069167        1.09164553
       38.24442       48.57815450        1.13599439
       38.34412       48.70093513        1.18917142
       38.44381       49.34594551        1.29435791
       38.54350       46.99447430        1.12588588
       38.64320       49.24139387        1.14908501
       38.74289       54.13729405        1.22082486
       38.84258       52.42438276        1.20418838
       38.94228       54.86295267        1.29218661
       39.04197       60.11216898        1.21986076
       39.14166       65.19463211        1.32173817
       39.24136       69.25048631        1.35872898
       39.34105       70.23013616        1.41605135
       39.44074       73.55106490        1.58085392
       39.54044       71.83721482        1.39684484
       39.64013       70.75361080        1.38199117
       39.73982       68.17736934        1.36198510
       39.83952       62.82592717        1.29837647
       39.93921       61.88426590        1.36630511
       40.03890       58.03402585        1.21097725
       40.13860       58.67263980        1.21607860
       40.23829       55.28250340        1.22203867
       40.33798       56.70723323        1.27633170
       40.43768       56.14442018        1.32872089
       40.53737       56.43815234        1.23645858
       40.63706       55.34291521        1.25006185
       40.73676       58.12647623        1.27920362
       40.83645       59.30659333        1.30296396
       40.93614       62.12695044        1.35605940
       41.03584       67.13342757        1.32678236
       41.13553       75.07647182        1.40493800
       41.23522       94.55373013        1.61578166
       41.33492      114.28458500        1.86025689
       41.43461      134.21046747        2.08114330
       41.53430      161.12554092        2.13648389
       41.63400      187.70698810        2.35735909
       41.73369      205.71432736        2.41460822
       41.83338      214.18241597        2.52999080
       41.93308      213.71501577        2.50459821
       42.03277      217.02791982        2.30693845
       42.13247      240.19324476        2.55173067
       42.23216      288.99374110        2.80595469
       42.33185      353.75447304        3.33481619
       42.43155      425.46141562        3.60594131
       42.53124      497.25408265        3.77707254
       42.63093      534.85164365        3.92444517
       42.73063      554.01425025        4.01252981
       42.83032      538.73101988        4.02627685
       42.93001      500.10604352        3.73248232
       43.02971      425.42977414        3.25012742
       43.12940      329.88213150        2.91707452
       43.22909      256.48491952        2.70213141
       43.32879      192.72134443        2.46577175
       43.42848      147.93077220        2.11180594
       43.52817      109.05200689        1.73372868
       43.62787       88.03204200        1.55204716
       43.72756       72.99889348        1.44632768
       43.82725       67.31607418        1.45012831
       43.92695       61.63025731        1.25805639
       44.02664       56.98855318        1.20380812
       44.12633       56.05981242        1.23843763
       44.22603       57.42421053        1.30470234
       44.32572       55.96589095        1.35746393
       44.42541       53.57438637        1.26794173
       44.52511       54.85300414        1.24853041
       44.62480       56.21044807        1.28181214
       44.72449       60.66267013        1.29063289
       44.82419       60.07681946        1.44116490
       44.92388       65.96355821        1.25966450
       45.02357       73.76614092        1.34323620
       45.12327       84.67946872        1.48267864
       45.22296      103.64872900        1.68421662
       45.32265      128.22267916        2.07320614
       45.42235      143.93308098        2.00021174
       45.52204      172.15121775        2.16647033
       45.62174      205.17218861        2.40956801
       45.72143      227.72951625        2.53936303
       45.82112      237.54897657        2.83946848
       45.92082      246.72682475        2.45736839
       46.02051      241.73425707        2.48398454
       46.12020      236.12180105        2.46287097
       46.21990      218.90650746        2.49108044
       46.31959      197.61080638        2.55479323
       46.41928      173.01910237        2.20696407
       46.51898      145.65623980        2.03521717
       46.61867      120.49125516        1.84091468
       46.71836       93.86606175        1.66557546
       46.81806       80.04654586        1.59442491
       46.91775       65.66107811        1.25826636
       47.01744       62.18811437        1.25365098
       47.11714       65.28605419        1.31397548
       47.21683       65.26267753        1.35236144
       47.31652       75.54588734        1.58778038
       47.41622       86.86838134        1.60491094
       47.51591       98.79051072        1.71496584
       47.61560      118.06466528        1.85981839
       47.71530      134.50097640        2.00698272
       47.81499      146.55395045        2.14796101
       47.91468      161.31016632        1.97183847
       48.01438      177.85247069        2.07218651
       48.11407      183.80494603        2.18565191
       48.21376      179.63553043        2.25562818
       48.31346      176.54127851        2.31575254
       48.41315      161.39128333        2.06316881
       48.51284      142.07108019        1.99938594
       48.61254      121.85837774        1.84347683
       48.71223      102.24937319        1.71864271
       48.81192       88.55991889        1.59528874
       48.91162       72.77896645        1.29595172
       49.01131       63.54046340        1.25310614
       49.11100       57.97443822        1.23991896
       49.21070       54.68409900        1.26416960
       49.31039       49.47663239        1.23734678
       49.41009       48.96829528        1.16286918
       49.50978       50.79874062        1.20899059
       49.60947       49.36044857        1.20041542
       49.70917       48.48990509        1.23386206
       49.80886       47.84764640        1.19284713
       49.90855       50.55196089        1.11699860
       50.00825       47.11340516        1.10098340
       50.10794       51.27642741        1.17490873
       50.20763       49.82047006        1.20989309
       50.30733       52.73891081        1.30407435
       50.40702       54.22147242        1.24005155
       50.50671       53.78818250        1.23869508
       50.60641       55.98187620        1.26558983
       50.70610       54.14342681        1.28060091
       50.80579       57.24282174        1.29950995
       50.90549       57.25898590        1.17178432
       51.00518       56.60516383        1.17537740
       51.10487       55.71755459        1.20537666
       51.20457       57.70292619        1.30598527
       51.30426       56.15934862        1.28162737
       51.40395       55.54766980        1.22192411
       51.50365       57.78943127        1.26067115
       51.60334       57.48343672        1.28214645
       51.70303       60.95366676        1.40223505
       51.80273       62.15790613        1.29892707
       51.90242       60.59881777        1.19821768
       52.00211       60.97931161        1.20767380
       52.10181       61.53091757        1.25154362
       52.20150       62.59483019        1.39020776
       52.30119       62.03973825        1.33320851
       52.40089       61.52891949        1.30689493
       52.50058       62.74393553        1.34472505
       52.60027       60.77087880        1.34139566
       52.69997       62.24421144        1.48783981
       52.79966       61.68129294        1.24517944
       52.89935       64.98650979        1.23336273
       52.99905       71.33635306        1.31356163
       53.09874       84.60528300        1.47717269
       53.19844       95.42267753        1.79687282
       53.29813      108.98605270        1.70707219
       53.39782      121.78357283        1.86720994
       53.49752      136.20236775        1.98425912
       53.59721      141.82942084        2.02338071
       53.69690      149.11826385        2.27685779
       53.79660      154.18485888        1.93965748
       53.89629      156.84984832        1.93543176
       53.99598      148.64487454        1.92974805
       54.09568      136.59221918        1.93117198
       54.19537      127.81477082        2.03702105
       54.29506      112.06533779        1.75158053
       54.39476      106.99608025        1.72468017
       54.49445       93.45473250        1.61238256
       54.59414       92.41612480        1.62785004
       54.69384       88.29744231        1.69726022
       54.79353       85.56635125        1.43266584
       54.89322       80.59482835        1.38520219
       54.99292       79.91848902        1.41976952
       55.09261       72.95696112        1.41040167
       55.19230       71.62844706        1.50073375
       55.29200       66.20686093        1.34267855
       55.39169       63.09063619        1.35229915
       55.49138       58.64617340        1.29878186
       55.59108       58.14516731        1.33468701
       55.69077       54.10607588        1.32113290
       55.79046       56.65058010        1.18199497
       55.89016       56.26669063        1.17515305
       55.98985       57.00698391        1.19047176
       56.08954       59.98672236        1.26155939
       56.18924       63.40034121        1.39983044
       56.28893       73.22357327        1.37724924
       56.38862       80.13325803        1.49054194
       56.48832       94.77180914        1.64951310
       56.58801      104.92076359        1.78619287
       56.68770      110.79267796        1.89464144
       56.78740      117.85469462        1.67271668
       56.88709      115.66569335        1.67352557
       56.98679      103.74412397        1.58578521
       57.08648       98.70837690        1.63960432
       57.18617       89.00767251        1.61175575
       57.28587       76.55021550        1.39608962
       57.38556       66.18429558        1.38149184
       57.48525       62.48520977        1.36802543
       57.58495       56.78161943        1.33376430
       57.68464       54.50950509        1.31812351
       57.78433       53.53091655        1.14266668
       57.88403       53.94996166        1.16052120
       57.98372       52.40173660        1.16189738
       58.08341       54.10573951        1.27661984
       58.18311       53.28682898        1.29594073
       58.28280       52.24746174        1.20862511
       58.38249       53.85097714        1.28220514
       58.48219       53.84041389        1.30976342
       58.58188       52.06257125        1.30196144
       58.68157       52.82623285        1.28516884
       58.78127       53.11434865        1.12721340
       58.88096       53.91437623        1.11894585
       58.98065       57.01613164        1.19462753
       59.08035       55.63725329        1.25915770
       59.18004       59.00967978        1.31559145
       59.27973       58.15179105        1.23214181
       59.37943       62.65400601        1.32130370
       59.47912       67.45729431        1.42742929
       59.57881       71.50909721        1.53978753
       59.67851       77.54576937        1.49518261
       59.77820       85.87767657        1.44678963
       59.87789       94.30934544        1.51108799
       59.97759       97.72740309        1.60916840
       60.07728      104.68454462        1.80389276
       60.17697      109.65802948        1.75904248
       60.27667      109.42181116        1.70833267
       60.37636      107.80114493        1.72842725
       60.47605      104.50688623        1.77521376
       60.57575      100.88710583        1.91137562
       60.67544       95.13295180        1.59436510
       60.77514       85.92813313        1.44017144
       60.87483       78.11246873        1.34620207
       60.97452       71.51471723        1.35675454
       61.07422       70.13611563        1.50935398
       61.17391       65.56552469        1.26394049
       61.27360       65.66062827        1.30977673
       61.37330       67.47864358        1.37711716
       61.47299       66.20756090        1.42397050
       61.57268       67.44194671        1.63440402
       61.67238       69.59522761        1.35327605
       61.77207       69.62717490        1.31829529
       61.87176       72.51119907        1.33046664
       61.97146       71.08885366        1.36762577
       62.07115       68.91340813        1.52492744
       62.17084       69.62472956        1.34293655
       62.27054       66.69009265        1.37029146
       62.37023       65.24945810        1.40933502
       62.46992       64.56193661        1.44990357
       62.56962       66.65111975        1.65471809
       62.66931       65.35882448        1.31998065
       62.76900       75.35322879        1.38189389
       62.86870       81.34784229        1.40472058
       62.96839       90.82382739        1.53205944
       63.06808       97.03581055        1.76258163
       63.16778      103.87753983        1.61911493
       63.26747      113.97261978        1.75553984
       63.36716      116.02733868        1.83822372
       63.46686      120.89480821        1.93288510
       63.56655      127.08109470        2.10567096
       63.66624      139.12470102        1.87325406
       63.76594      149.34928735        1.88576482
       63.86563      167.61382797        1.99260865
       63.96532      176.11588633        2.13774676
       64.06502      175.99676650        2.28931761
       64.16471      174.51335566        2.10855744
       64.26440      160.82383365        2.10640132
       64.36410      147.73533300        2.05903418
       64.46379      131.09025061        2.05039004
       64.56349      117.06672388        1.97143741
       64.66318       98.91578422        1.58538367
       64.76287       82.85376628        1.43249626
       64.86257       71.54654869        1.32876137
       64.96226       64.12107143        1.31736915
       65.06195       56.21625532        1.33346814
       65.16165       55.09564371        1.19081673
       65.26134       52.44668616        1.18893115
       65.36103       54.90667961        1.26949738
       65.46073       54.27186689        1.30357661
       65.56042       54.76987873        1.36776238
       65.66011       55.33220521        1.19876158
       65.75981       56.30013070        1.19714433
       65.85950       59.66217197        1.22464540
       65.95919       63.62525494        1.32401180
       66.05889       64.72863645        1.38134772
       66.15858       68.88436173        1.35521591
       66.25827       78.12293803        1.49295286
       66.35797       87.15229574        1.64301806
       66.45766      100.38608049        1.87421676
       66.55735      111.26025361        1.97300959
       66.65705      127.85090848        1.87680846
       66.75674      142.95408024        1.93450294
       66.85643      152.06036772        1.97273496
       66.95613      165.22496996        2.13879363
       67.05582      168.38122118        2.17542483
       67.15551      168.27372012        2.06949734
       67.25521      158.80273529        2.10965715
       67.35490      150.39250167        2.16103950
       67.45459      136.43196476        2.17017599
       67.55429      122.64942606        1.97098146
       67.65398      101.75909683        1.60847420
       67.75367       85.42706013        1.46115347
       67.85337       78.31852314        1.41606469
       67.95306       74.06166726        1.47232732
       68.05275       73.73686371        1.39105745
       68.15245       78.55778334        1.42362564
       68.25214       89.18500976        1.61044724
       68.35184       97.18852022        1.75238681
       68.45153      100.44610469        1.96123799
       68.55122      109.81479281        1.76698546
       68.65092      118.35765636        1.71015733
       68.75061      124.65133466        1.77338542
       68.85030      128.95185519        1.83865522
       68.95000      124.66455460        2.04935722
       69.04969      125.88331168        1.73931667
       69.14938      111.76756995        1.68461588
       69.24908       98.52133230        1.68854451
       69.34877       92.33875680        1.69058809
       69.44846       83.13120455        1.86022050
       69.54816       75.86981332        1.38536961
       69.64785       66.03493136        1.27394664
       69.74754       58.83391535        1.21433800
       69.84724       54.03732083        1.19396855
       69.94693       51.34174974        1.31332310
       70.04662       49.12241441        1.05632636
       70.14632       49.53853934        1.10309562
       70.24601       45.59653602        1.13299574
       70.34570       45.76876131        1.20119650
       70.44540       47.83693128        1.44702218
       70.54509       49.47375665        1.15191439
       70.64478       47.02295895        1.12132669
       70.74448       49.41578691        1.16782106
       70.84417       49.83181586        1.21693708
       70.94386       52.19136157        1.36723003
       71.04356       50.82760913        1.11644631
       71.14325       53.59215201        1.19143505
       71.24294       51.82181489        1.23262591
       71.34264       52.56714229        1.31640729
       71.44233       53.74386754        1.48538055
       71.54202       53.69482479        1.20873160
       71.64172       55.29514157        1.19325015
       71.74141       54.20807302        1.15997896
       71.84110       51.46589346        1.16988276
       71.94080       52.31430730        1.28531016
       72.04049       51.72472435        1.08171801
       72.14019       52.81534181        1.13891042
       72.23988       52.53019960        1.18842161
       72.33957       51.51282861        1.31450963
       72.43927       51.96892259        1.45342705
       72.53896       52.69203145        1.17344376
       72.63865       53.53648262        1.15617678
       72.73835       54.30096734        1.13882410
       72.83804       56.32237420        1.22482213
       72.93773       57.64563647        1.31628609
       73.03743       59.43306450        1.16020091
       73.13712       64.27647244        1.27261419
       73.23681       63.64873620        1.33042198
       73.33651       65.60640494        1.48637831
       73.43620       64.36434727        1.59457630
       73.53589       65.69584625        1.29962560
       73.63559       65.81191288        1.28035229
       73.73528       66.73467702        1.28348074
       73.83497       64.85354955        1.34129728
       73.93467       64.38071811        1.40720837
       74.03436       65.68526342        1.25798708
       74.13405       63.15531403        1.28585215
       74.23375       61.57976889        1.32251373
       74.33344       65.99093899        1.50738393
       74.43313       60.30439216        1.49494420
       74.53283       61.72170736        1.28506640
       74.63252       66.55929488        1.32502919
       74.73221       70.18340973        1.35413724
       74.83191       73.54324240        1.47060219
       74.93160       76.58584004        1.51776226
       75.03129       80.67244076        1.38502873
       75.13099       81.84974834        1.44504606
       75.23068       90.13834593        1.58214378
       75.33037       99.26015043        1.82545740
       75.43007      102.85730465        1.88517080
       75.52976      113.13975189        1.71780198
       75.62945      124.54967753        1.80130986
       75.72915      132.49157114        1.85083963
       75.82884      140.50451532        2.05254276
       75.92854      136.32415113        1.89756241
       76.02823      148.81203462        1.86009764
       76.12792      152.10770234        1.96574791
       76.22762      154.88069823        2.09296389
       76.32731      144.82343892        2.28491615
       76.42700      151.07852870        2.20311523
       76.52670      146.57835493        2.00169094
       76.62639      143.12820278        1.95282696
       76.72608      129.99363702        1.82944391
       76.82578      119.49642306        2.02044527
       76.92547      117.28549976        1.60319971
       77.02516      117.34757933        1.66209502
       77.12486      122.35703949        1.78317876
       77.22455      123.97590242        1.91127237
       77.32424      127.40045512        2.38048522
       77.42394      134.09779647        1.95048347
       77.52363      135.05284681        1.89153408
       77.62332      138.67381608        1.90814006
       77.72302      146.74176349        1.96779297
       77.82271      148.90502232        2.32480274
       77.92240      151.42640881        1.79534421
       78.02210      151.89722073        1.94028758
       78.12179      142.93528898        2.00966099
       78.22148      140.22805793        2.10478048
       78.32118      137.05853681        2.41433958
       78.42087      130.74099010        1.85548797
       78.52056      121.53514804        1.84692327
       78.62026      110.47603759        1.74649089
       78.71995      101.98834522        1.68328251
       78.81964       97.30978573        1.83636293
       78.91934       89.92809162        1.36761212
       79.01903       77.55627678        1.39189831
       79.11872       71.64435016        1.39202445
       79.21842       68.34891785        1.45028341
       79.31811       66.22734241        1.60797083
       79.41780       65.00982854        1.29229740
       79.51750       65.05534380        1.31357748
       79.61719       65.09890632        1.31788606
       79.71689       63.97547203        1.35636611
       79.81658       62.78403708        1.42429896
       79.91627       65.49992747        1.23326250
       80.01597       64.39708922        1.25684868
       80.11566       63.68258934        1.30652114
       80.21535       64.05289623        1.40068206
       80.31505       68.89839520        1.72720060
       80.41474       64.71440219        1.28608863
       80.51443       65.74712633        1.29067767
       80.61413       71.82192374        1.39401399
       80.71382       76.52122284        1.48871198
       80.81351       81.99518426        1.73192729
       80.91321       90.10459367        1.33914024
       81.01290      104.06025589        1.55411987
       81.11259      120.74239973        1.80759680
       81.21229      137.77376742        2.08928167
       81.31198      147.93958532        2.41536991
       81.41167      169.12906764        2.02295791
       81.51137      196.40221025        2.24399051
       81.61106      214.70010016        2.45068401
       81.71075      226.70185158        2.60677818
       81.81045      238.54550069        2.83349344
       81.91014      260.61540060        2.27839934
       82.00983      278.65849605        2.51908149
       82.10953      287.38399306        2.86219182
       82.20922      294.97014986        3.22535991
       82.30891      302.58232036        3.42602399
       82.40861      306.34048791        2.80357149
       82.50830      297.89443291        2.75670019
       82.60799      297.60117511        2.96806337
       82.70769      302.53001307        3.25725454
       82.80738      295.71701855        3.07624114
       82.90707      286.56148853        2.45839877
       83.00677      274.85893138        2.56471433
       83.10646      264.87139393        2.96191678
       83.20615      252.95000393        3.22110208
       83.30585      238.74001599        2.96369610
       83.40554      219.60342620        2.36229981
       83.50524      201.18115620        2.20555468
       83.60493      181.47386108        2.30683991
       83.70462      164.15221126        2.47312965
       83.80432      151.94987065        2.07904930
       83.90401      131.09959300        1.61927042
       84.00370      106.17334116        1.51897727
       84.10340       89.38286486        1.66477303
       84.20309       85.76778431        1.97974724
       84.30278       79.38355436        1.54876827
       84.40248       72.79497502        1.30871183
       84.50217       65.87042338        1.22104630
       84.60186       65.37473676        1.37548194
       84.70156       66.32631424        1.81305410
       84.80125       65.35460034        1.25295713
       84.90094       65.27196015        1.12483885
       85.00064       64.46826429        1.15173020
       85.10033       64.16871776        1.35985951
       85.20002       64.04023231        2.32994983
       85.29972       67.28590426        1.25996751
       85.39941       66.28558055        1.27496563
       85.49910       66.04774629        1.23763418
       85.59880       68.01269152        1.41232254
       85.69849       65.34150790        2.48508347
       85.79818       67.76569701        1.19326610
       85.89788       62.45135750        1.11794251
       85.99757       65.27398137        1.17447721
       86.09726       64.75165108        1.34304248
       86.19696       64.45004814        2.57347527
       86.29665       61.98105121        1.19418246
       86.39634       61.74809044        1.21261222
       86.49604       60.53956888        1.18247858
       86.59573       58.04213338        1.23354522
       86.69542       58.56819267        2.59080238
       86.79512       56.46229006        1.05587563
       86.89481       55.46143163        1.03169253
       86.99451       54.76530234        1.06263518
       87.09420       52.86752195        1.16433416
       87.19389       52.23839138        2.74153077
       87.29359       52.56244825        1.11452227
       87.39328       50.36652534        1.10564748
       87.49297       48.80788872        1.05653551
       87.59267       50.66412245        1.09767789
       87.69236       50.34428971        3.27415335
       87.79205       49.61867240        1.01253592
       87.89175       49.67469871        1.00495300
       87.99144       49.03663955        1.04040452
       88.09113       50.68763308        1.12435209
       88.19083       37.28812702        5.10069479
       88.29052       49.04411588        1.11287845
       88.39021       47.67336548        1.10447636
       88.48991       50.52473040        1.09133320
       88.58960       50.54822338        1.05710841
       88.68929       35.44385940        6.85363362
       88.78899       51.65503769        1.03150838
       88.88868       50.72957567        0.99986787
       88.98837       49.16287882        1.02371402
       89.08807       51.92915499        1.07776528
       89.18776       46.20326692        8.27004726
       89.28745       49.79563839        1.07220996
       89.38715       52.03074553        1.10735396
       89.48684       54.23236979        1.10643501
       89.58653       58.21776999        1.12323516
       89.68623       53.33124296        8.71381857
       89.78592       60.82931542        1.11573472
       89.88561       63.52033069        1.11786751
       89.98531       65.10999093        1.16056766
       90.08500       69.99085066        1.24817252
       90.18469       83.52862422       11.37757266
       90.28439       77.06767288        1.33797066
       90.38408       80.71135236        1.39236536
       90.48377       86.62684870        1.41566092
       90.58347       91.27854550        1.43052797
       90.68316       89.85798884       11.05547009
       90.78286       93.37325321        1.38505483
       90.88255       95.09464246        1.36014763
       90.98224       98.75322270        1.43424552
       91.08194       98.04380153        1.47593295
       91.18163      102.01452658       12.01530586
       91.28132       97.70762398        1.51699051
       91.38102       99.95774643        1.57520276
       91.48071       95.21933613        1.49944032
       91.58040       90.82093532        1.41604386
       91.68010       92.56997722       10.81617195
       91.77979       87.18643749        1.33170835
       91.87948       83.50531855        1.28300449
       91.97918       77.60634891        1.28409844
       92.07887       76.12875349        1.32476210
       92.17856       66.54129444        9.41391159
       92.27826       77.63154680        1.38172231
       92.37795       73.16120045        1.37295422
       92.47764       71.45048565        1.28794057
       92.57734       77.54728455        1.30192920
       92.67703       72.22551173        8.15449109
       92.77672       77.91398106        1.25777470
       92.87642       83.82675580        1.27997919
       92.97611       83.84264163        1.33667994
       93.07580       88.91516831        1.57132687
       93.17550       93.12279220        3.02426407
       93.27519       92.63240725        1.47848465
       93.37488       96.45281046        1.46672553
       93.47458      101.88574407        1.52433266
       93.57427      101.86597054        1.76214614
       93.67396      106.48589311        2.43518786
       93.77366       99.22632395        1.45585525
       93.87335       99.37907310        1.39170391
       93.97304       93.38170985        1.40559555
       94.07274       88.98488450        1.78112703
       94.17243       88.40753587        2.02565672
       94.27212       91.52241248        1.53525844
       94.37182       90.14551668        1.48489149
       94.47151       85.98155649        1.38861212
       94.57121       86.63560128        1.83964041
       94.67090       84.64531858        1.83931733
       94.77059       83.06559112        1.41634995
       94.87029       77.94684706        1.24740498
       94.96998       70.96181108        1.20498864
       95.06967       69.51830085        1.37482625
       95.16937       69.39756804        1.88036331
       95.26906       62.62842809        1.37963879
       95.36875       63.22638171        1.25787179
       95.46845       61.76776709        1.19478481
       95.56814       59.60632758        1.35046020
       95.66783       59.48845743        1.51567378
       95.76753       56.68598060        1.22252126
       95.86722       56.25734438        1.03594422
       95.96691       50.12293076        1.01404128
       96.06661       53.88711768        1.34708075
       96.16630       49.97366355        1.38318809
       96.26599       51.34084074        1.25913083
       96.36569       49.35515145        1.10765089
       96.46538       50.28771598        1.07906840
       96.56507       47.44146086        1.29348249
       96.66477       45.44732619        1.23354546
       96.76446       47.18537113        1.12326796
       96.86415       48.43274438        0.98578810
       96.96385       48.39417884        1.01775822
       97.06354       48.13679438        1.37254050
       97.16323       47.58469931        1.30479282
       97.26293       50.42611628        1.26204763
       97.36262       49.54437992        1.15839751
       97.46231       48.19773388        1.05107244
       97.56201       50.99536849        1.37561679
       97.66170       49.46773664        1.21684859
       97.76139       53.11085209        1.14562403
       97.86109       54.38163277        1.04829636
       97.96078       55.68956985        1.08405067
       98.06047       53.39207634        1.47421996
       98.16017       56.35012551        1.34648089
       98.25986       57.11708192        1.29488654
       98.35956       56.67522267        1.21773246
       98.45925       61.02911811        1.17965866
       98.55894       63.16438562        1.56561931
       98.65864       64.04503247        1.35269452
       98.75833       68.12350873        1.30371986
       98.85802       71.27006499        1.24523751
       98.95772       70.57269413        1.23082871
       99.05741       70.22880666        1.70450271
       99.15710       76.79103401        1.53317728
       99.25680       79.43333575        1.51083393
       99.35649       77.94634381        1.42534560
       99.45618       83.11575307        1.37188032
       99.55588       83.79912093        1.84064762
       99.65557       86.08556162        1.53921216
       99.75526       85.90472689        1.44112811
       99.85496       87.07564918        1.38100647
       99.95465       86.01548567        1.34559346
      100.05434       85.90744855        1.91569291
      100.15404       86.82401376        1.62221273
      100.25373       88.04645713        1.61409823
      100.35342       85.38401502        1.58314594
      100.45312       85.19503189        1.44301369
      100.55281       82.65165003        1.86659593
      100.65250       82.65318372        1.52065635
      100.75220       78.03900668        1.36845412
      100.85189       78.83643186        1.31426161
      100.95158       76.89893943        1.26324518
      101.05128       77.72876262        1.81075335
      101.15097       77.21551003        1.49157149
      101.25066       79.08333158        1.49150537
      101.35036       77.77168925        1.49183822
      101.45005       74.25881911        1.37065216
      101.54974       74.07172950        1.70503025
      101.64944       74.56787539        1.39576774
      101.74913       76.21644345        1.32964974
      101.84882       77.92805505        1.30883901
      101.94852       78.24286285        1.38148374
      102.04821       77.48321075        1.65581289
      102.14791       79.41985845        1.51090433
      102.24760       81.34985910        1.51634184
      102.34729       78.97171029        1.48779187
      102.44699       80.49159128        1.52823712
      102.54668       84.95152041        1.64769597
      102.64637       85.63008414        1.47749527
      102.74607       83.15465660        1.38651073
      102.84576       86.51752496        1.38757782
      102.94545       89.44433300        1.60705626
      103.04515       85.04117367        1.65861165
      103.14484       82.80411791        1.52901166
      103.24453       82.44944757        1.50217597
      103.34423       83.74811696        1.50177343
      103.44392       86.26684617        1.65119223
      103.54361       88.77354584        1.62732730
      103.64331       85.68736417        1.45516715
      103.74300       86.87423929        1.39767183
      103.84269       87.42427236        1.37784509
      103.94239       85.26546122        1.63508825
      104.04208       83.94516728        1.56947753
      104.14177       81.74157120        1.50666983
      104.24147       83.73842501        1.52429324
      104.34116       82.05088381        1.51813347
      104.44085       80.80135156        1.71097666
      104.54055       77.05780757        1.51259251
      104.64024       81.12878397        1.45911168
      104.73993       74.86157172        1.33722144
      104.83963       73.28405871        1.27461084
      104.93932       72.32990903        1.53506079
      105.03901       73.28781142        1.45600294
      105.13871       71.56372428        1.38528168
      105.23840       72.18786919        1.39054103
      105.33809       71.50903781        1.39212410
      105.43779       67.72086980        1.57609514
      105.53748       67.79539369        1.41420809
      105.63717       67.31843567        1.29169808
      105.73687       63.46613170        1.19343575
      105.83656       63.76757025        1.16568157
      105.93626       58.74315857        1.41756791
      106.03595       57.35934290        1.26949533
      106.13564       55.39643520        1.20572783
      106.23534       55.80233177        1.22505638
      106.33503       55.37802651        1.23270042
      106.43472       51.57320015        1.40619015
      106.53442       53.07335344        1.24083777
      106.63411       52.24842223        1.11835165
      106.73380       52.11247148        1.06450179
      106.83350       54.97351802        1.07711807
      106.93319       54.44656909        1.38955327
      107.03288       53.89153779        1.22522343
      107.13258       53.91314028        1.18948844
      107.23227       55.14051675        1.22046337
      107.33196       56.29240646        1.22981046
      107.43166       56.02331867        1.47412038
      107.53135       56.32376230        1.27528857
      107.63104       59.08058379        1.18942339
      107.73074       61.98706375        1.16899770
      107.83043       62.42371514        1.15829685
      107.93012       63.30928610        1.54315206
      108.02982       60.94926272        1.32513433
      108.12951       62.57308929        1.27689765
      108.22920       65.41331726        1.28474999
      108.32890       66.82912430        1.28626260
      108.42859       68.32897412        1.65077118
      108.52828       65.96190749        1.37568148
      108.62798       65.18987059        1.24005235
      108.72767       69.48505995        1.22901569
      108.82736       69.44960777        1.25577365
      108.92706       68.49052062        1.57935500
      109.02675       67.22867813        1.36882325
      109.12644       65.68054711        1.32044624
      109.22614       65.81820280        1.32287581
      109.32583       64.14159669        1.42296075
      109.42552       66.69895098        1.53072447
      109.52522       64.04328693        1.35311561
      109.62491       65.28845702        1.29954972
      109.72461       66.21247220        1.25124530
      109.82430       63.31258142        1.14282938
      109.92399       62.17840369        1.47246274
      110.02369       61.39686253        1.28128204
      110.12338       61.73198602        1.27641782
      110.22307       58.52119633        1.23334003
      110.32277       59.85579329        1.27378020
      110.42246       58.64149134        1.53291521
      110.52215       55.48991209        1.26281453
      110.62185       55.55445469        1.19084400
      110.72154       56.38676538        1.11932472
      110.82123       57.26419080        1.16499172
      110.92093       54.99455369        1.33145501
      111.02062       55.49224708        1.23564533
      111.12031       54.65573618        1.23541660
      111.22001       56.81021073        1.23602928
      111.31970       55.75777825        1.32890070
      111.41939       57.17031148        1.39248247
      111.51909       58.29144139        1.27588704
      111.61878       58.40930530        1.20312727
      111.71847       62.59907242        1.15899475
      111.81817       64.02018836        1.27217741
      111.91786       68.26046343        1.38264125
      112.01755       69.01868845        1.35758403
      112.11725       72.33918673        1.40054738
      112.21694       72.01050227        1.39107044
      112.31663       73.47494990        1.54847870
      112.41633       76.20220963        1.54933167
      112.51602       77.79410597        1.44164899
      112.61571       79.90090736        1.39382283
      112.71541       84.16830221        1.34834435
      112.81510       87.36129225        1.54044389
      112.91479       85.51381301        1.55239545
      113.01449       87.51720123        1.53799746
      113.11418       90.32406992        1.55739755
      113.21387       90.35740050        1.55060062
      113.31357       88.52180800        1.70437050
      113.41326       88.76387653        1.62197075
      113.51296       90.98928803        1.54483533
      113.61265       91.92680414        1.49832015
      113.71234       92.56751632        1.43616537
      113.81204       91.61326761        1.63676694
      113.91173       92.41382564        1.59301784
      114.01142       90.61086211        1.56141451
      114.11112       88.66777493        1.54365764
      114.21081       88.07412044        1.54957698
      114.31050       88.78168689        1.76437017
      114.41020       88.22948089        1.62526591
      114.50989       86.66039867        1.50784195
      114.60958       86.23288157        1.45553658
      114.70928       82.33495782        1.37155099
      114.80897       82.21282250        1.55443083
      114.90866       81.66243203        1.46119851
      115.00836       81.91225897        1.45660448
      115.10805       81.60132047        1.46173998
      115.20774       86.53572584        1.52833137
      115.30744       88.89877357        1.77874961
      115.40713       84.38253432        1.56941262
      115.50682       87.25285533        1.50678737
      115.60652       86.79209415        1.44833613
      115.70621       89.01670608        1.40979150
      115.80590       89.82959591        1.65217554
      115.90560       90.47585842        1.50288779
      116.00529       95.72530232        1.56340854
      116.10498       94.49507848        1.56949227
      116.20468       98.81733670        1.64208427
      116.30437       99.59291485        1.96518531
      116.40406      100.97428953        1.72350641
      116.50376      101.81485922        1.63551777
      116.60345      104.70431913        1.59225562
      116.70314      105.97068615        1.55332955
      116.80284      114.12531524        1.91589939
      116.90253      120.76960471        1.77332030
      117.00222      124.22499741        1.78450054
      117.10192      128.39919868        1.86311474
      117.20161      133.05304647        1.91997971
      117.30131      129.71576041        2.26822749
      117.40100      134.26219064        1.94034016
      117.50069      139.36735693        1.87790267
      117.60039      148.32299976        1.85458373
      117.70008      153.81542418        1.82999325
      117.79977      157.01437761        2.26591787
      117.89947      160.00323422        1.98869743
      117.99916      159.88690658        2.01167276
      118.09885      161.79899174        2.06174609
      118.19855      165.22655625        2.18246172
      118.29824      172.22259535        2.44327576
      118.39793      172.13025267        2.21770274
      118.49763      173.98959331        2.10410762
      118.59732      177.37067326        2.05135803
      118.69701      177.70925787        2.13904868
      118.79671      178.86845059        2.31729151
      118.89640      175.49390961        2.13980737
      118.99609      176.47660307        2.14356763
      119.09579      177.55690114        2.17526206
      119.19548      178.31139794        2.38193244
      119.29517      175.88508932        2.45754542
      119.39487      175.08805049        2.25394873
      119.49456      172.91394335        2.11065605
      119.59425      169.85734056        2.03136608
      119.69395      159.24986339        2.07434841
      119.79364      158.47028785        2.09119299
      119.89333      154.12979129        1.99568458
      119.99303      151.14660645        1.92934884
      120.09272      144.42267581        1.92847501
      120.19241      144.84306493        2.17082826
      120.29211      138.62558504        2.10161379
      120.39180      135.01060810        1.97846486
      120.49149      130.60024872        1.80948820
      120.59119      126.21688742        1.72631662
      120.69088      124.24211442        1.84366583
      120.79057      122.83378540        1.79374443
      120.89027      123.85777336        1.76842742
      120.98996      118.78014215        1.71818411
      121.08966      121.26901361        1.74924086
      121.18935      116.42487474        1.96429464
      121.28904      117.42346617        1.92275963
      121.38874      116.41210078        1.81033414
      121.48843      115.53377013        1.70336089
      121.58812      114.59554660        1.61791378
      121.68782      116.01255146        1.80351106
      121.78751      116.29980360        1.72071576
      121.88720      114.69696010        1.68687439
      121.98690      112.74784538        1.68489608
      122.08659      113.73557737        1.72620920
      122.18628      110.46049457        1.97323582
      122.28598      108.43475139        1.83838581
      122.38567      106.89979301        1.74808477
      122.48536      109.25968183        1.67186230
      122.58506      111.20425243        1.59756725
      122.68475      113.13474932        1.82610158
      122.78444      105.33957473        1.65872787
      122.88414      108.33450008        1.66803853
      122.98383      105.81104290        1.68212572
      123.08352      105.54074151        1.66559474
      123.18322      104.31187876        1.93118497
      123.28291      105.38948165        1.76426170
      123.38260      100.92489617        1.66642990
      123.48230       99.69404493        1.59623323
      123.58199      101.45181917        1.50514458
      123.68168       97.07637079        1.67982286
      123.78138       95.90833876        1.50633780
      123.88107       95.30219242        1.46682108
      123.98076       90.95444818        1.45925704
      124.08046       89.85080005        1.43503962
      124.18015       87.84710830        1.60594026
      124.27984       85.21400255        1.41695900
      124.37954       84.05918658        1.32794292
      124.47923       81.49836878        1.27639364
      124.57893       78.66148189        1.33585619
