        5.04651       65.60102882        2.76440741
        5.14621       57.87670312        2.50176206
        5.24590       57.35139552        2.45462457
        5.34559       59.17331767        2.28692115
        5.44529       55.23290234        2.40336419
        5.54498       57.10650804        2.05579566
        5.64467       52.58061569        1.95509665
        5.74437       58.10694924        1.85562993
        5.84406       54.41265740        1.81698038
        5.94375       52.65708625        1.78492246
        6.04345       56.06927602        1.78991384
        6.14314       52.24925734        1.58184141
        6.24283       52.78833119        1.64249788
        6.34253       53.39548002        1.57562144
        6.44222       56.12330691        1.70108663
        6.54191       53.36963326        1.57133436
        6.64161       51.63058746        1.46404229
        6.74130       54.30288677        1.50765873
        6.84099       53.78836183        1.48960831
        6.94069       54.57820177        1.52314221
        7.04038       54.77498992        1.40851244
        7.14007       52.99132957        1.38243056
        7.23977       53.35154907        1.36288653
        7.33946       50.75671440        1.34955554
        7.43915       52.63375416        1.35643993
        7.53885       51.33243444        1.31479066
        7.63854       51.98508601        1.26463979
        7.73823       53.44928611        1.33158382
        7.83793       52.94521684        1.28247582
        7.93762       53.38776570        1.34340734
        8.03732       51.89898567        1.18782334
        8.13701       53.26095315        1.19793394
        8.23670       54.83073502        1.23267821
        8.33640       54.66048113        1.23109358
        8.43609       55.58966803        1.29799317
        8.53578       54.71094441        1.19937415
        8.63548       53.81163161        1.17576723
        8.73517       56.71101022        1.18414246
        8.83486       53.11305808        1.14860915
        8.93456       53.89363975        1.15110781
        9.03425       55.25778152        1.13150760
        9.13394       52.96659780        1.10979729
        9.23364       54.30856596        1.14023039
        9.33333       55.22518095        1.17326064
        9.43302       55.14205306        1.17281008
        9.53272       54.91572152        1.13084903
        9.63241       55.58595561        1.16991478
        9.73210       54.07887065        1.15157194
        9.83180       55.80825870        1.21903921
        9.93149       53.71240966        1.18728194
       10.03118       53.93405937        1.14475569
       10.13088       55.90901438        1.13767722
       10.23057       55.57879183        1.18784236
       10.33026       55.94365733        1.23187542
       10.42996       56.79135455        1.22420412
       10.52965       54.36652085        1.15989853
       10.62934       56.74614298        1.18795756
       10.72904       56.95846917        1.20778894
       10.82873       56.50919712        1.19693504
       10.92842       57.66362068        1.22941599
       11.02812       54.29074418        1.13637177
       11.12781       55.92106532        1.19474551
       11.22750       57.18517527        1.22026487
       11.32720       56.17050299        1.24187579
       11.42689       56.33369812        1.20053625
       11.52658       57.82440499        1.20188409
       11.62628       58.13957095        1.21824492
       11.72597       55.71072222        1.21775157
       11.82567       60.66526904        1.30631238
       11.92536       57.84950155        1.19364639
       12.02505       63.16173693        1.25328944
       12.12475       62.84256998        1.24896762
       12.22444       66.97424490        1.36740030
       12.32413       69.13892284        1.41054276
       12.42383       73.86580337        1.38395672
       12.52352       80.56784236        1.43656776
       12.62321       89.27648757        1.55524745
       12.72291       98.66591183        1.59098978
       12.82260      117.25932064        1.88585577
       12.92229      122.88720346        1.75299232
       13.02199      143.53947607        1.87990470
       13.12168      175.20438744        2.11399957
       13.22137      208.42791563        2.38157739
       13.32107      245.04516972        2.66695071
       13.42076      280.58510926        2.74853357
       13.52045      318.41974200        2.96546792
       13.62015      338.82996555        2.96627702
       13.71984      331.30211958        3.05706750
       13.81953      310.29646522        3.00866987
       13.91923      285.00944584        2.70896561
       14.01892      229.38482486        2.36509496
       14.11861      177.83730729        2.17179894
       14.21831      143.12827218        1.94983382
       14.31800      114.21828123        1.83311709
       14.41769       90.19862194        1.56827421
       14.51739       76.21897194        1.40621293
       14.61708       65.07132267        1.30230243
       14.71677       56.66638039        1.23487028
       14.81647       56.20487667        1.28837254
       14.91616       54.94518416        1.17142494
       15.01585       53.19929062        1.17337870
       15.11555       51.28063367        1.16530010
       15.21524       53.15285286        1.22282895
       15.31493       51.79313181        1.23613651
       15.41463       51.68135919        1.19556392
       15.51432       52.32358997        1.16572212
       15.61402       49.15483516        1.15835414
       15.71371       47.50188183        1.13082385
       15.81340       47.90641977        1.18140339
       15.91310       50.14514329        1.17452626
       16.01279       49.97433126        1.12267353
       16.11248       49.85680643        1.15146051
       16.21218       48.92596951        1.17223268
       16.31187       50.61025921        1.19522521
       16.41156       49.53443940        1.16039166
       16.51126       48.56659192        1.16838732
       16.61095       51.25672265        1.15748273
       16.71064       52.89006902        1.21302348
       16.81034       53.07815768        1.21886393
       16.91003       54.10469597        1.19514753
       17.00972       55.75277067        1.16474567
       17.10942       57.65045851        1.25192004
       17.20911       63.29324083        1.32358915
       17.30880       65.36542379        1.35683429
       17.40850       71.78263260        1.42183312
       17.50819       72.80373715        1.39041563
       17.60788       76.09517913        1.46579070
       17.70758       75.87448174        1.46968163
       17.80727       78.29497985        1.51150103
       17.90696       74.03177995        1.37400629
       18.00666       68.10695116        1.34074904
       18.10635       64.26791777        1.26667075
       18.20604       61.73050986        1.36175568
       18.30574       59.40699174        1.27308977
       18.40543       56.18725292        1.20734449
       18.50512       57.77783098        1.26302679
       18.60482       54.98402918        1.21266923
       18.70451       52.02144449        1.24636878
       18.80420       50.66167418        1.15541639
       18.90390       51.53328995        1.15290878
       19.00359       52.10238808        1.12897693
       19.10328       50.46909237        1.17550629
       19.20298       50.91725413        1.21747273
       19.30267       45.31530278        1.10275655
       19.40237       48.67001130        1.13004555
       19.50206       48.54727779        1.15699045
       19.60175       46.60220761        1.12078818
       19.70145       46.14513265        1.16945403
       19.80114       46.71813955        1.11604471
       19.90083       47.67294687        1.08932885
       20.00053       46.25313388        1.09196891
       20.10022       49.40176889        1.13703205
       20.19991       48.93789754        1.20987341
       20.29961       50.75762493        1.16755511
       20.39930       51.23193180        1.20845282
       20.49899       51.32881835        1.18858480
       20.59869       52.29330988        1.22167626
       20.69838       53.49708995        1.28127803
       20.79807       52.04986905        1.20537796
       20.89777       55.22222620        1.21361490
       20.99746       55.23288693        1.22580054
       21.09715       58.21493806        1.32569487
       21.19685       59.16141276        1.32950680
       21.29654       61.62666057        1.32378668
       21.39623       60.39645262        1.31051918
       21.49593       56.71521806        1.25163917
       21.59562       55.87923471        1.27225978
       21.69531       54.22429170        1.30349928
       21.79501       50.92853878        1.15550177
       21.89470       48.19895511        1.09871019
       21.99439       45.84062118        1.11682980
       22.09409       46.30811511        1.12531024
       22.19378       46.13244681        1.19279284
       22.29347       47.73833967        1.13013486
       22.39317       46.17605847        1.14021990
       22.49286       46.15434985        1.13903982
       22.59255       47.13737980        1.16468120
       22.69225       47.38538953        1.23057784
       22.79194       47.73190962        1.10922062
       22.89163       46.83430686        1.07722494
       22.99133       48.64413460        1.12835749
       23.09102       47.55474987        1.15860683
       23.19072       45.18082849        1.13188710
       23.29041       48.50000219        1.15826074
       23.39010       49.32151526        1.18029966
       23.48980       48.24328464        1.17152056
       23.58949       49.00274255        1.19657106
       23.68918       46.63816631        1.22743519
       23.78888       46.33171169        1.09027806
       23.88857       46.35986924        1.10488194
       23.98826       46.68150912        1.13348645
       24.08796       45.99535501        1.10317679
       24.18765       46.55050528        1.18919738
       24.28734       45.94734301        1.12484935
       24.38704       45.63313580        1.13971979
       24.48673       43.57022871        1.10959737
       24.58642       46.08299993        1.17900774
       24.68612       44.02185890        1.15073352
       24.78581       46.24484910        1.08731974
       24.88550       46.58161777        1.09083968
       24.98520       48.18814077        1.15059615
       25.08489       47.34282322        1.16319669
       25.18458       48.70160353        1.20461113
       25.28428       48.92678113        1.16371953
       25.38397       49.10359176        1.16016450
       25.48366       52.38640357        1.20562636
       25.58336       54.25401519        1.27890748
       25.68305       62.56622062        1.34735387
       25.78274       67.03589234        1.31640864
       25.88244       81.12058209        1.48518687
       25.98213      102.74510293        1.68594737
       26.08182      131.04069976        1.95517652
       26.18152      159.27058289        2.20889880
       26.28121      187.65988069        2.26925863
       26.38090      198.50078223        2.35378321
       26.48060      200.40842349        2.43037797
       26.58029      184.22691880        2.42999968
       26.67998      159.60855470        2.13520720
       26.77968      131.13939499        1.91150167
       26.87937      101.03303987        1.65286777
       26.97907       79.45548462        1.45299252
       27.07876       72.07011673        1.48993154
       27.17845       70.91212129        1.41238043
       27.27815       75.68733520        1.42519832
       27.37784       81.94714618        1.54104499
       27.47753       89.29043219        1.58523714
       27.57723       86.67177492        1.63593474
       27.67692       87.04042598        1.60024048
       27.77661       82.64838239        1.48817550
       27.87631       73.89660750        1.38348447
       27.97600       63.17239714        1.30760822
       28.07569       58.66243725        1.33349178
       28.17539       55.23669705        1.23864286
       28.27508       51.73051799        1.19908369
       28.37477       51.34545601        1.22303165
       28.47447       51.40918679        1.21423529
       28.57416       53.65386854        1.34119340
       28.67385       55.36698395        1.21220504
       28.77355       56.40635449        1.20148845
       28.87324       57.69506903        1.24754901
       28.97293       58.85467841        1.26301181
       29.07263       58.98551278        1.37828110
       29.17232       59.31856879        1.26136310
       29.27201       58.58900476        1.27671539
       29.37171       55.76310447        1.28118478
       29.47140       52.35889314        1.22699565
       29.57109       48.86774663        1.25683392
       29.67079       49.16078109        1.14764964
       29.77048       50.86288640        1.17012714
       29.87017       49.78283611        1.13487228
       29.96987       47.31405604        1.15996438
       30.06956       49.75486518        1.22729997
       30.16925       48.37866393        1.13942962
       30.26895       52.28352175        1.18920998
       30.36864       50.40177181        1.18661537
       30.46833       52.65094457        1.22518709
       30.56803       54.34081858        1.31488285
       30.66772       57.50839135        1.25888259
       30.76742       60.33581237        1.26375655
       30.86711       62.98870492        1.31707963
       30.96680       65.01291789        1.34589628
       31.06650       63.66388137        1.39645891
       31.16619       63.31165557        1.30935810
       31.26588       61.17699137        1.27927549
       31.36558       58.33779706        1.26547662
       31.46527       60.78557158        1.34420151
       31.56496       61.88137650        1.37809288
       31.66466       65.33481853        1.32439614
       31.76435       73.14324345        1.40019255
       31.86404       82.47138370        1.46765061
       31.96374       86.77627157        1.54054061
       32.06343       90.77243505        1.63071333
       32.16312       85.54419603        1.48746994
       32.26282       78.77781768        1.46202103
       32.36251       75.58428925        1.48929646
       32.46220       67.32968629        1.43049524
       32.56190       62.27405831        1.39994750
       32.66159       56.53058415        1.26643532
       32.76128       54.00983585        1.21000785
       32.86098       54.19624580        1.23030863
       32.96067       53.75272227        1.24059709
       33.06036       53.65236901        1.26205106
       33.16006       53.22901829        1.18383071
       33.25975       54.01437119        1.23130814
       33.35944       55.26202866        1.25225233
       33.45914       55.96020968        1.30810136
       33.55883       58.78269908        1.34395378
       33.65852       60.28535533        1.26919171
       33.75822       68.48370917        1.35073368
       33.85791       77.64700618        1.44448093
       33.95760       82.55155495        1.53349660
       34.05730       88.87768784        1.57584472
       34.15699      100.42857527        1.64884656
       34.25668      113.33008245        1.74575285
       34.35638      134.19686854        1.94927374
       34.45607      179.30432897        2.37497860
       34.55577      220.78316054        2.51232296
       34.65546      292.26130165        2.77460219
       34.75515      380.37724506        3.22936705
       34.85485      445.14210815        3.46927799
       34.95454      470.77523288        3.68084792
       35.05423      452.47774491        3.73098876
       35.15393      390.04257361        3.24985916
       35.25362      298.50457671        2.88358097
       35.35331      220.33610252        2.53970772
       35.45301      163.27379342        2.28015947
       35.55270      119.13593049        1.89554020
       35.65239       92.15094869        1.60965823
       35.75209       83.85820141        1.52434921
       35.85178       76.98828915        1.45844789
       35.95147       73.58086800        1.45928957
       36.05117       69.31118828        1.38701273
       36.15086       63.77519880        1.27907726
       36.25055       61.60141713        1.31328909
       36.35025       56.23785537        1.27916361
       36.44994       52.87401538        1.26497159
       36.54963       52.15514400        1.20601134
       36.64933       52.96178480        1.19720341
       36.74902       51.50608865        1.19291300
       36.84871       53.88836154        1.21148787
       36.94841       55.24843510        1.32664551
       37.04810       52.78911961        1.14333647
       37.14779       51.10574721        1.14795925
       37.24749       51.25561987        1.18162744
       37.34718       48.55330451        1.17928167
       37.44687       49.39773377        1.27778820
       37.54657       49.99651838        1.17361051
       37.64626       49.23004064        1.16008302
       37.74595       50.21964502        1.15340514
       37.84565       49.56606542        1.21241151
       37.94534       47.84766282        1.21346732
       38.04503       49.07325013        1.11076872
       38.14473       50.17709050        1.13424302
       38.24442       51.85986527        1.17424965
       38.34412       50.90196022        1.21622972
       38.44381       50.69979670        1.31247593
       38.54350       51.09956979        1.17457639
       38.64320       51.53153888        1.17597327
       38.74289       52.99624521        1.20822846
       38.84258       53.44556174        1.21629261
       38.94228       58.00490360        1.32924443
       39.04197       63.05712445        1.24991337
       39.14166       65.89835650        1.32931007
       39.24136       70.46365738        1.37107508
       39.34105       73.72691395        1.45151769
       39.44074       72.53880791        1.57038336
       39.54044       74.18786322        1.42008522
       39.64013       68.15288590        1.35666333
       39.73982       65.09904889        1.33116313
       39.83952       63.81384177        1.30900855
       39.93921       58.69332235        1.33088938
       40.03890       55.06178729        1.17981305
       40.13860       56.22520350        1.19072308
       40.23829       52.84681288        1.19509417
       40.33798       54.52908872        1.25188374
       40.43768       56.02829210        1.32776500
       40.53737       59.34330044        1.26841753
       40.63706       57.38972002        1.27346687
       40.73676       59.60546038        1.29585710
       40.83645       62.14164107        1.33430274
       40.93614       62.43898673        1.35990998
       41.03584       65.96573474        1.31555915
       41.13553       75.65914928        1.41085862
       41.23522       88.98406166        1.56766418
       41.33492      105.32731117        1.78587695
       41.43461      120.45428938        1.97128260
       41.53430      141.04422699        1.99815026
       41.63400      173.65955244        2.26704257
       41.73369      188.51347578        2.31080229
       41.83338      197.67528811        2.42991440
       41.93308      201.51299090        2.43178364
       42.03277      204.23670531        2.23763407
       42.13247      217.81839609        2.42885199
       42.23216      253.43881782        2.62527319
       42.33185      322.76741969        3.18300683
       42.43155      426.11208540        3.60990269
       42.53124      519.80640361        3.86594374
       42.63093      612.65173014        4.21259368
       42.73063      647.50329772        4.35299841
       42.83032      625.17621904        4.35137689
       42.93001      561.85173400        3.96574720
       43.02971      426.93324185        3.25704784
       43.12940      305.90020703        2.80759503
       43.22909      204.60306433        2.40982497
       43.32879      151.47102127        2.18356010
       43.42848      107.66104606        1.79961601
       43.52817       86.57602394        1.54404184
       43.62787       74.13464733        1.42403845
       43.72756       68.44234529        1.40068388
       43.82725       63.62611816        1.41009101
       43.92695       58.00576086        1.22073699
       44.02664       59.13488971        1.22675252
       44.12633       58.81584526        1.26904327
       44.22603       57.23033939        1.30290558
       44.32572       58.83511751        1.39241139
       44.42541       53.67716611        1.26956784
       44.52511       56.40367864        1.26652909
       44.62480       57.13692924        1.29278795
       44.72449       59.26577847        1.27603157
       44.82419       63.62159055        1.48373179
       44.92388       65.11335784        1.25188275
       45.02357       71.94851902        1.32692296
       45.12327       79.47959565        1.43663040
       45.22296       94.24914034        1.60601596
       45.32265      108.81245258        1.90915967
       45.42235      129.78735465        1.89904363
       45.52204      166.07277909        2.12810231
       45.62174      210.74752957        2.44333412
       45.72143      260.33692179        2.71901656
       45.82112      294.28597532        3.16764520
       45.92082      320.53724200        2.80897716
       46.02051      303.64980030        2.79084075
       46.12020      268.62872270        2.63073316
       46.21990      217.76807009        2.48528147
       46.31959      170.36168901        2.37061626
       46.41928      129.60666578        1.90783488
       46.51898       95.50805602        1.64566524
       46.61867       76.92677584        1.46916069
       46.71836       63.08816757        1.36443536
       46.81806       62.79434521        1.41178432
       46.91775       57.80267823        1.18062315
       47.01744       56.64581649        1.19663305
       47.11714       56.88705145        1.22657536
       47.21683       61.70245494        1.31521253
       47.31652       69.13847813        1.51909800
       47.41622       73.54626774        1.47650779
       47.51591       82.88509802        1.57047888
       47.61560      103.06393254        1.73729614
       47.71530      127.89415164        1.95723929
       47.81499      151.68269041        2.18630849
       47.91468      188.32191966        2.13323142
       48.01438      214.80038925        2.28093568
       48.11407      226.82974917        2.43243078
       48.21376      215.66030239        2.47536405
       48.31346      193.09092873        2.42403110
       48.41315      164.94614339        2.08668804
       48.51284      129.02509859        1.90511277
       48.61254      102.60406180        1.69097605
       48.71223       81.74310092        1.53605483
       48.81192       69.11408238        1.40878875
       48.91162       57.94271826        1.15610551
       49.01131       53.87249429        1.15381797
       49.11100       53.80885473        1.19475011
       49.21070       50.66689316        1.21706678
       49.31039       51.32380681        1.26071793
       49.41009       48.94450139        1.16295755
       49.50978       50.80539941        1.20945683
       49.60947       48.85154931        1.19457194
       49.70917       46.07445425        1.20302049
       49.80886       47.37160026        1.18725817
       49.90855       50.36858198        1.11532022
       50.00825       50.70580157        1.14269726
       50.10794       49.95851044        1.16002869
       50.20763       51.76800917        1.23379350
       50.30733       52.91050882        1.30661980
       50.40702       52.32050223        1.21842793
       50.50671       54.01391303        1.24169835
       50.60641       55.17915386        1.25684969
       50.70610       55.33744312        1.29511275
       50.80579       57.05585684        1.29779225
       50.90549       56.53361340        1.16468095
       51.00518       54.63174431        1.15499612
       51.10487       53.83399549        1.18512762
       51.20457       52.58403482        1.24688650
       51.30426       55.45512735        1.27394205
       51.40395       56.24702598        1.23001560
       51.50365       56.80039626        1.25019280
       51.60334       59.71295356        1.30729447
       51.70303       60.64987046        1.39916840
       51.80273       58.40348149        1.25932372
       51.90242       60.33566510        1.19598429
       52.00211       62.29136764        1.22104352
       52.10181       63.62189903        1.27313166
       52.20150       61.91587216        1.38305635
       52.30119       62.39007391        1.33741126
       52.40089       60.53957490        1.29671455
       52.50058       61.72942173        1.33418791
       52.60027       60.83721608        1.34255970
       52.69997       56.98090504        1.42373692
       52.79966       57.79973876        1.20558445
       52.89935       59.01222459        1.17543257
       52.99905       62.76198350        1.23211466
       53.09874       73.95473807        1.38099351
       53.19844       88.83043461        1.73384562
       53.29813      103.84729663        1.66657212
       53.39782      124.31437844        1.88727921
       53.49752      142.79773536        2.03284819
       53.59721      163.39954697        2.17412837
       53.69690      175.22133560        2.47114227
       53.79660      174.39454677        2.06497567
       53.89629      171.85601475        2.02760598
       53.99598      156.21727662        1.97944308
       54.09568      137.56910381        1.93874780
       54.19537      121.29028297        1.98452665
       54.29506      108.49170828        1.72375933
       54.39476       95.88669978        1.63257438
       54.49445       89.19855264        1.57550561
       54.59414       83.38469836        1.54626708
       54.69384       80.07392654        1.61634129
       54.79353       83.62683289        1.41669122
       54.89322       76.23447509        1.34743360
       54.99292       75.16533220        1.37711149
       55.09261       69.97403747        1.38156417
       55.19230       67.66821993        1.45892006
       55.29200       63.74053809        1.31773929
       55.39169       61.41113936        1.33452593
       55.49138       58.75770075        1.30043691
       55.59108       55.45003347        1.30368050
       55.69077       54.84855225        1.33062682
       55.79046       54.55992026        1.16026503
       55.89016       55.93964408        1.17209397
       55.98985       55.26416193        1.17243577
       56.08954       59.05155019        1.25204604
       56.18924       57.15665586        1.32924931
       56.28893       67.55744151        1.32304882
       56.38862       73.98128624        1.43233133
       56.48832       85.52888821        1.56700428
       56.58801       92.90731380        1.68065262
       56.68770      102.98384325        1.82673469
       56.78740      115.36396033        1.65532916
       56.88709      116.18927616        1.67787388
       56.98679      112.69701378        1.65383989
       57.08648      106.01551818        1.70018610
       57.18617       96.32391569        1.67765467
       57.28587       85.81174785        1.47908572
       57.38556       74.84823573        1.47005166
       57.48525       65.68691167        1.40324220
       57.58495       64.15119717        1.41849878
       57.68464       55.36404657        1.32888013
       57.78433       53.74779992        1.14535401
       57.88403       54.32549250        1.16494102
       57.98372       50.48042222        1.14068553
       58.08341       51.96450484        1.25140952
       58.18311       54.44974919        1.31047812
       58.28280       53.34394958        1.22167933
       58.38249       53.04946154        1.27299828
       58.48219       52.70074207        1.29618941
       58.58188       51.96555381        1.30115935
       58.68157       50.63768326        1.25857094
       58.78127       52.66518940        1.12277837
       58.88096       55.26379607        1.13327839
       58.98065       51.58707918        1.13647526
       59.08035       58.22998837        1.28869185
       59.18004       57.64973093        1.30069685
       59.27973       59.49599553        1.24675857
       59.37943       64.38379051        1.33992868
       59.47912       65.01633782        1.40169285
       59.57881       71.35014950        1.53855793
       59.67851       72.70951928        1.44802366
       59.77820       83.71379421        1.42879298
       59.87789       89.71195754        1.47402876
       59.97759       95.52048491        1.59127919
       60.07728      102.49988312        1.78540281
       60.17697      104.93466625        1.72100453
       60.27667      107.07967176        1.69035015
       60.37636      104.73688682        1.70404449
       60.47605      104.18367998        1.77301125
       60.57575       98.16763709        1.88585960
       60.67544       93.75131037        1.58317298
       60.77514       87.66580871        1.45521332
       60.87483       77.08209925        1.33767232
       60.97452       71.23046839        1.35447445
       61.07422       68.08895511        1.48753104
       61.17391       65.75161566        1.26614561
       61.27360       64.25002049        1.29598088
       61.37330       63.12897235        1.33221523
       61.47299       68.52565974        1.44926543
       61.57268       69.33336970        1.65780377
       61.67238       71.37171469        1.37096241
       61.77207       69.61171511        1.31856926
       61.87176       70.27957241        1.31014879
       61.97146       67.56681190        1.33357720
       62.07115       67.99464117        1.51516296
       62.17084       66.02605526        1.30802239
       62.27054       62.91671860        1.33120960
       62.37023       63.10649228        1.38633707
       62.46992       59.55434598        1.39273938
       62.56962       60.61195919        1.57814160
       62.66931       58.28702226        1.24661437
       62.76900       59.94007567        1.23221295
       62.86870       59.75312448        1.20338958
       62.96839       63.40655738        1.27927246
       63.06808       73.48014373        1.53301893
       63.16778       81.40912219        1.43268058
       63.26747      100.47628159        1.64806760
       63.36716      119.54817407        1.86672990
       63.46686      134.13849382        2.03759774
       63.56655      153.75318837        2.31902445
       63.66624      175.88769587        2.10963825
       63.76594      191.98590818        2.14192734
       63.86563      204.14906397        2.20257983
       63.96532      205.24568966        2.31085419
       64.06502      201.25080140        2.45099510
       64.16471      188.03065923        2.19042220
       64.26440      155.71409433        2.07295649
       64.36410      131.84350713        1.94467629
       64.46379      110.47244305        1.88149387
       64.56349       97.47058915        1.79822070
       64.66318       81.99557474        1.44303655
       64.76287       69.29056999        1.30980333
       64.86257       63.91523699        1.25596357
       64.96226       61.24411350        1.28775755
       65.06195       58.82934849        1.36466942
       65.16165       54.35047393        1.18308357
       65.26134       53.16657711        1.19747623
       65.36103       52.61969774        1.24307489
       65.46073       52.78935360        1.28599283
       65.56042       56.17437614        1.38569995
       65.66011       54.64644210        1.19166212
       65.75981       56.48956515        1.19954807
       65.85950       58.15553293        1.20940604
       65.95919       58.83580900        1.27339626
       66.05889       64.36015906        1.37783263
       66.15858       72.06619881        1.38675982
       66.25827       81.64386021        1.52690107
       66.35797       90.72345637        1.67708734
       66.45766      107.94592859        1.94464223
       66.55735      120.27728168        2.05270460
       66.65705      139.05678575        1.95872085
       66.75674      152.57279501        1.99983271
       66.85643      168.19464719        2.07658357
       66.95613      173.43112012        2.19258638
       67.05582      173.30636600        2.20809066
       67.15551      167.59838747        2.06594689
       67.25521      156.29283891        2.09339989
       67.35490      141.29456295        2.09465323
       67.45459      126.45351774        2.08924204
       67.55429      106.51830039        1.83634657
       67.65398       92.36009054        1.53237430
       67.75367       81.48820541        1.42732860
       67.85337       74.12140758        1.37783517
       67.95306       75.55327053        1.48763258
       68.05275       79.16477830        1.44208283
       68.15245       86.71300797        1.49660190
       68.25214       96.43282160        1.67556763
       68.35184      104.69758418        1.81988362
       68.45153      114.76203945        2.09806628
       68.55122      120.55096208        1.85263365
       68.65092      128.44357106        1.78273038
       68.75061      129.52581819        1.80861075
       68.85030      128.63213420        1.83693803
       68.95000      123.00941569        2.03623712
       69.04969      116.26256859        1.67150000
       69.14938      101.23734875        1.60321347
       69.24908       88.25989988        1.59812650
       69.34877       78.33666457        1.55687353
       69.44846       71.31000545        1.72272464
       69.54816       63.35261048        1.26578807
       69.64785       58.85212334        1.20274758
       69.74754       54.62228479        1.17026740
       69.84724       51.29442607        1.16353114
       69.94693       51.34664387        1.31380599
       70.04662       49.01737169        1.05552998
       70.14632       48.56151067        1.09247529
       70.24601       46.66442405        1.14659639
       70.34570       45.14876367        1.19338855
       70.44540       46.62240421        1.42893085
       70.54509       47.39812782        1.12776996
       70.64478       49.81109919        1.15457404
       70.74448       51.58932129        1.19370076
       70.84417       51.80461655        1.24127511
       70.94386       52.39838499        1.37038710
       71.04356       50.81599527        1.11667535
       71.14325       51.71830852        1.17071762
       71.24294       51.77837272        1.23250133
       71.34264       55.44512624        1.35253224
       71.44233       53.91740487        1.48826159
       71.54202       53.87811673        1.21118790
       71.64172       55.34101769        1.19412867
       71.74141       54.04073220        1.15855068
       71.84110       51.37272054        1.16919331
       71.94080       52.35059701        1.28616873
       72.04049       53.36673520        1.09916846
       72.14019       51.21422233        1.12180975
       72.23988       52.32422080        1.18646006
       72.33957       54.37929177        1.35115611
       72.43927       55.38390807        1.50108138
       72.53896       54.69852667        1.19604399
       72.63865       52.98140087        1.15051271
       72.73835       55.26065442        1.14924969
       72.83804       58.02516877        1.24367126
       72.93773       59.01854107        1.33235850
       73.03743       62.27892996        1.18815193
       73.13712       67.20363730        1.30181892
       73.23681       72.13253438        1.41719099
       73.33651       67.45645449        1.50776960
       73.43620       68.04404114        1.64025965
       73.53589       70.28277205        1.34487680
       73.63559       69.54673892        1.31677437
       73.73528       68.68840589        1.30263831
       73.83497       65.45596280        1.34797154
       73.93467       63.71103273        1.40028473
       74.03436       61.89788501        1.22140874
       74.13405       60.74733638        1.26139673
       74.23375       56.42153277        1.26608713
       74.33344       54.72608217        1.37260507
       74.43313       56.20373416        1.44347494
       74.53283       54.96500922        1.21278922
       74.63252       56.06307980        1.21601239
       74.73221       57.68584048        1.22751818
       74.83191       59.60643517        1.32372051
       74.93160       61.50554967        1.35986287
       75.03129       65.70496401        1.24969916
       75.13099       71.04962768        1.34625627
       75.23068       86.09675395        1.54654101
       75.33037       96.17900889        1.79728052
       75.43007      107.36381776        1.92694403
       75.52976      120.55882101        1.77425537
       75.62945      143.12365850        1.93282809
       75.72915      151.26780955        1.97957131
       75.82884      162.61601047        2.21055994
       75.92854      169.01171395        2.11593412
       76.02823      177.44167456        2.03383906
       76.12792      172.31024649        2.09436337
       76.22762      171.89637086        2.20694915
       76.32731      161.39929358        2.41429953
       76.42700      151.98206730        2.21046498
       76.52670      137.60558486        1.93946448
       76.62639      118.90787573        1.77900171
       76.72608      105.69823874        1.64877151
       76.82578       97.77449212        1.82679580
       76.92547       94.26710811        1.43659171
       77.02516       98.05521407        1.51879337
       77.12486      107.32519130        1.66970875
       77.22455      118.57163054        1.86939177
       77.32424      129.60547779        2.40194654
       77.42394      140.25845969        1.99584885
       77.52363      149.38052771        1.99097100
       77.62332      163.30125873        2.07309673
       77.72302      169.66537528        2.11828711
       77.82271      174.05543287        2.51648630
       77.92240      182.22719553        1.97223355
       78.02210      175.34189925        2.08702397
       78.12179      167.08590664        2.17534120
       78.22148      156.36892270        2.22457776
       78.32118      140.37790011        2.44446119
       78.42087      126.07685703        1.82237252
       78.52056      112.97881892        1.78075617
       78.62026       94.11188853        1.61154945
       78.71995       83.28971117        1.52065561
       78.81964       73.81470251        1.59857098
       78.91934       66.33075986        1.17395458
       79.01903       60.92042645        1.23328998
       79.11872       57.84580255        1.25060401
       79.21842       56.84317926        1.32248043
       79.31811       54.86256099        1.46339883
       79.41780       53.65134430        1.17389302
       79.51750       56.77719804        1.22719480
       79.61719       58.57842067        1.25025620
       79.71689       59.82746235        1.31188536
       79.81658       60.10874652        1.39393746
       79.91627       61.89614280        1.19908681
       80.01597       61.05762640        1.22407377
       80.11566       61.62085340        1.28551520
       80.21535       63.94470606        1.39994051
       80.31505       65.11935325        1.67947787
       80.41474       65.87501282        1.29803755
       80.51443       67.18361142        1.30518403
       80.61413       70.61728781        1.38265691
       80.71382       73.83003652        1.46262789
       80.81351       70.84406957        1.60973985
       80.91321       75.20992022        1.22321143
       81.01290       82.46624194        1.38289592
       81.11259       92.12880230        1.57787275
       81.21229      108.21489170        1.85031560
       81.31198      117.43565694        2.15038320
       81.41167      132.69828547        1.79017393
       81.51137      164.80148242        2.05393773
       81.61106      188.55818815        2.29528098
       81.71075      207.16364038        2.49100926
       81.81045      226.34049103        2.75975559
       81.91014      260.55824384        2.27886302
       82.00983      296.39701806        2.60043703
       82.10953      325.22348032        3.04974201
       82.20922      349.05317569        3.51627287
       82.30891      360.25186588        3.74690363
       82.40861      377.41035249        3.12044942
       82.50830      370.07301578        3.08120174
       82.60799      367.09593880        3.30539697
       82.70769      359.94865035        3.56110491
       82.80738      346.10452993        3.33486387
       82.90707      332.21185520        2.65199571
       83.00677      301.52666186        2.68958041
       83.10646      277.46389281        3.03378571
       83.20615      260.34086863        3.26969015
       83.30585      226.60693012        2.88709874
       83.40554      201.74079462        2.26349540
       83.50524      168.74735913        2.01831546
       83.60493      141.01137292        2.03124111
       83.70462      121.89418953        2.12868367
       83.80432      108.75126954        1.75676291
       83.90401       86.72261567        1.31536880
       84.00370       79.89503711        1.31686530
       84.10340       70.34206926        1.47633041
       84.20309       70.71366905        1.79724899
       84.30278       63.54342379        1.38533035
       84.40248       62.21439156        1.20980650
       84.50217       63.64504257        1.20053259
       84.60186       61.00409134        1.32892785
       84.70156       65.17244672        1.79771550
       84.80125       60.72579496        1.20796068
       84.90094       63.02582806        1.10558137
       85.00064       63.76070204        1.14572993
       85.10033       62.35255840        1.34082014
       85.20002       64.24998767        2.33452541
       85.29972       65.37934865        1.24230208
       85.39941       63.51692753        1.24833213
       85.49910       66.91834824        1.24620052
       85.59880       65.01012843        1.38109102
       85.69849       65.61124551        2.49102685
       85.79818       64.59612364        1.16526823
       85.89788       62.17885656        1.11584663
       85.99757       64.85122136        1.17102432
       86.09726       63.57631495        1.33116781
       86.19696       68.64163669        2.65708186
       86.29665       67.05131246        1.24268499
       86.39634       65.85889745        1.25290734
       86.49604       66.08914157        1.23612448
       86.59573       60.76255491        1.26264648
       86.69542       60.41942996        2.63244178
       86.79512       60.56924478        1.09411045
       86.89481       57.63529790        1.05213404
       86.99451       57.92399457        1.09332128
       87.09420       55.62906213        1.19485469
       87.19389       51.47139987        2.72212691
       87.29359       53.58570323        1.12571883
       87.39328       51.63601383        1.11990280
       87.49297       48.78372253        1.05661092
       87.59267       49.16001383        1.08154988
       87.69236       53.62455174        3.38060761
       87.79205       49.77034987        1.01441213
       87.89175       51.10713907        1.01971711
       87.99144       49.72935032        1.04808804
       88.09113       50.28560146        1.12022663
       88.19083       47.92333329        5.78654340
       88.29052       49.11941279        1.11409164
       88.39021       49.61769490        1.12721160
       88.48991       49.83259919        1.08415268
       88.58960       49.74420466        1.04897328
       88.68929       42.77975124        7.53391567
       88.78899       48.67878314        1.00156621
       88.88868       49.77300247        0.99067952
       88.98837       50.38424059        1.03672824
       89.08807       49.42344708        1.05168495
       89.18776       56.24289166        9.13056884
       89.28745       48.37180017        1.05705466
       89.38715       51.09332528        1.09764795
       89.48684       52.98750932        1.09396443
       89.58653       55.48805991        1.09683119
       89.68623       64.15061088        9.56361718
       89.78592       56.99965186        1.08024155
       89.88561       63.22165065        1.11558091
       89.98531       67.12262334        1.17882838
       90.08500       77.67097514        1.31564660
       90.18469       89.20961452       11.76421518
       90.28439       83.72597994        1.39534232
       90.38408       90.84127739        1.47815694
       90.48377       96.79076804        1.49741915
       90.58347      101.97812052        1.51309776
       90.68316       93.44310601       11.27887129
       90.78286      100.95981530        1.44106655
       90.88255      103.49223709        1.41980359
       90.98224      109.22783338        1.50942810
       91.08194      106.14034720        1.53659188
       91.18163      117.01767711       12.87941979
       91.28132       99.23451391        1.52936694
       91.38102       99.13889383        1.56919244
       91.48071       93.12701643        1.48323863
       91.58040       85.56906462        1.37467665
       91.68010       97.20421351       11.08894262
       91.77979       75.72419131        1.24098264
       91.87948       70.28976504        1.17693943
       91.97918       65.80196222        1.18229975
       92.07887       63.65626708        1.21124610
       92.17856       65.44301365        9.33852109
       92.27826       61.14591140        1.22594888
       92.37795       61.99577698        1.26376093
       92.47764       62.35836382        1.20320734
       92.57734       68.27419069        1.22160126
       92.67703       77.94315098        8.47552172
       92.77672       74.51091340        1.23024555
       92.87642       82.94499936        1.27359634
       92.97611       88.52297605        1.37414599
       93.07580       98.92488859        1.65852655
       93.17550      103.16016788        3.18521758
       93.27519      102.07604440        1.55302912
       93.37488      107.24869962        1.54771244
       93.47458      107.38475866        1.56572859
       93.57427      111.36051861        1.84363910
       93.67396      110.27323334        2.47923378
       93.77366      109.90529065        1.53325734
       93.87335      110.87964424        1.47108849
       93.97304      107.62575639        1.51022961
       94.07274       98.14970579        1.87179998
       94.17243       92.22872430        2.06990810
       94.27212       90.00620678        1.52289295
       94.37182       85.12700132        1.44317276
       94.47151       81.16561703        1.34936505
       94.57121       73.09612448        1.68952239
       94.67090       72.54028894        1.70254556
       94.77059       70.35053171        1.30328165
       94.87029       64.85343671        1.13766264
       94.96998       61.42458227        1.12107534
       95.06967       61.81456515        1.29647677
       95.16937       61.59259840        1.77155014
       95.26906       62.37915100        1.37731836
       95.36875       59.03638098        1.21568722
       95.46845       58.52962419        1.16328447
       95.56814       58.98317774        1.34378247
       95.66783       56.45010265        1.47677435
       95.76753       57.06743809        1.22703637
       95.86722       54.90789045        1.02372275
       95.96691       53.89364066        1.05196838
       96.06661       53.57428429        1.34357966
       96.16630       52.10956136        1.41299588
       96.26599       54.93673583        1.30306063
       96.36569       50.40437560        1.11976197
       96.46538       50.53178348        1.08203910
       96.56507       47.14950123        1.28989552
       96.66477       49.53560883        1.28843104
       96.76446       47.81638864        1.13114072
       96.86415       46.88570229        0.97017372
       96.96385       51.23041021        1.04759697
       97.06354       50.08938319        1.40064536
       97.16323       49.87799871        1.33639972
       97.26293       50.63765833        1.26510600
       97.36262       49.32567390        1.15619872
       97.46231       49.49003023        1.06545930
       97.56201       51.79865209        1.38689152
       97.66170       51.85585309        1.24637811
       97.76139       51.95985204        1.13345872
       97.86109       53.52248647        1.04028377
       97.96078       56.32061135        1.09054806
       98.06047       53.04547594        1.46987912
       98.16017       53.90641222        1.31726897
       98.25986       52.20962078        1.23819152
       98.35956       52.12265653        1.16798645
       98.45925       56.20818974        1.13227719
       98.55894       55.72836629        1.47066370
       98.65864       58.41150509        1.29198932
       98.75833       59.48925740        1.21832156
       98.85802       65.26558281        1.19175713
       98.95772       66.93156934        1.19888600
       99.05741       69.82816626        1.70015279
       99.15710       72.92591208        1.49436853
       99.25680       73.49437607        1.45341751
       99.35649       78.33599040        1.42937947
       99.45618       84.12918867        1.38070828
       99.55588       83.13307976        1.83386037
       99.65557       85.20250051        1.53173832
       99.75526       86.99157911        1.45073397
       99.85496       88.03593661        1.38909042
       99.95465       90.44761660        1.38048029
      100.05434       89.95342800        1.96118950
      100.15404       91.47874309        1.66593270
      100.25373       92.47077223        1.65493985
      100.35342       92.68676540        1.65040825
      100.45312       88.05943359        1.46768711
      100.55281       89.67683441        1.94540650
      100.65250       82.55784812        1.52025903
      100.75220       81.32528091        1.39757751
      100.85189       77.68318837        1.30497708
      100.95158       75.89753971        1.25534957
      101.05128       74.66458655        1.77507877
      101.15097       70.24137561        1.42272354
      101.25066       73.23202453        1.43543062
      101.35036       71.42056590        1.42976389
      101.45005       74.89464984        1.37697797
      101.54974       74.63145853        1.71204041
      101.64944       74.09564657        1.39176229
      101.74913       78.54484229        1.35034863
      101.84882       82.82266460        1.34997953
      101.94852       84.51584327        1.43656989
      102.04821       86.85119682        1.75419086
      102.14791       93.34249824        1.63931714
      102.24760       87.95617769        1.57757932
      102.34729       91.59218755        1.60349146
      102.44699       90.89641701        1.62512247
      102.54668       93.84286689        1.73287090
      102.64637       92.18944662        1.53388233
      102.74607       96.81219064        1.49724097
      102.84576       95.23525226        1.45671829
      102.94545       97.82633710        1.68170103
      103.04515       97.36586595        1.77606900
      103.14484       92.24458571        1.61487071
      103.24453       93.31463823        1.59921195
      103.34423       91.88968134        1.57402975
      103.44392       89.50033761        1.68258046
      103.54361       87.42084328        1.61531981
      103.64331       86.61197246        1.46351136
      103.74300       82.80868905        1.36481632
      103.84269       82.75435016        1.34074790
      103.94239       83.22389203        1.61579425
      104.04208       79.91623029        1.53162297
      104.14177       79.24478516        1.48382421
      104.24147       79.69347545        1.48728567
      104.34116       79.49449830        1.49463950
      104.44085       81.68074075        1.72086425
      104.54055       80.49394079        1.54662939
      104.64024       79.22946404        1.44229479
      104.73993       78.38371672        1.36892348
      104.83963       74.66613091        1.28704707
      104.93932       72.70903637        1.53959069
      105.03901       70.87869265        1.43220811
      105.13871       68.64074527        1.35699014
      105.23840       69.08446665        1.36060861
      105.33809       64.34654345        1.32065520
      105.43779       65.30177656        1.54805168
      105.53748       63.56699393        1.36962989
      105.63717       59.82109503        1.21771436
      105.73687       56.56909043        1.12681092
      105.83656       56.08858208        1.09329837
      105.93626       54.98791321        1.37176679
      106.03595       52.70661953        1.21710863
      106.13564       52.11633899        1.16972574
      106.23534       52.18925289        1.18496105
      106.33503       51.54940809        1.18954530
      106.43472       50.04944379        1.38562985
      106.53442       48.55278208        1.18700780
      106.63411       48.95406853        1.08274132
      106.73380       48.22887196        1.02425627
      106.83350       50.04806165        1.02788317
      106.93319       49.14845672        1.32039165
      107.03288       52.04079423        1.20430791
      107.13258       49.86119919        1.14411902
      107.23227       49.98681241        1.16219003
      107.33196       50.44277817        1.16429282
      107.43166       51.21647712        1.40967426
      107.53135       52.76315819        1.23456074
      107.63104       56.02955610        1.15855025
      107.73074       61.39379621        1.16373766
      107.83043       61.73659237        1.15224458
      107.93012       64.96165965        1.56375087
      108.02982       66.91961051        1.38925616
      108.12951       62.76044651        1.27922499
      108.22920       67.91009199        1.30957253
      108.32890       69.67414606        1.31390735
      108.42859       71.00377798        1.68346735
      108.52828       74.28716652        1.46081086
      108.62798       73.05061840        1.31347145
      108.72767       73.26660379        1.26258654
      108.82736       73.90554769        1.29604981
      108.92706       76.96803911        1.67528158
      109.02675       74.21135142        1.43896606
      109.12644       74.95305506        1.41148827
      109.22614       72.60139930        1.39014735
      109.32583       76.72748848        1.55750472
      109.42552       73.34042254        1.60601400
      109.52522       71.20052276        1.42753809
      109.62491       69.52144208        1.34164448
      109.72461       67.59208130        1.26467887
      109.82430       62.67841350        1.13742944
      109.92399       63.53277063        1.48895949
      110.02369       61.91281386        1.28708901
      110.12338       58.71060450        1.24505530
      110.22307       57.09661315        1.21856431
      110.32277       54.29654702        1.21333682
      110.42246       55.92126734        1.49727436
      110.52215       54.49661094        1.25181734
      110.62185       53.65053993        1.17055609
      110.72154       52.67185229        1.08202892
      110.82123       51.55793407        1.10555579
      110.92093       51.72138374        1.29148852
      111.02062       53.37107764        1.21209621
      111.12031       54.90607897        1.23864954
      111.22001       55.12485058        1.21787398
      111.31970       55.08016661        1.32119192
      111.41939       53.96925071        1.35321739
      111.51909       56.33413544        1.25459791
      111.61878       57.19163691        1.19084990
      111.71847       59.07327747        1.12610264
      111.81817       64.82343526        1.28057862
      111.91786       67.81895115        1.37858137
      112.01755       65.92931754        1.32713227
      112.11725       69.36909990        1.37178917
      112.21694       72.57708229        1.39700603
      112.31663       74.03685331        1.55491553
      112.41633       76.43041973        1.55215776
      112.51602       75.88957493        1.42425192
      112.61571       81.25574051        1.40610583
      112.71541       85.45763877        1.35912750
      112.81510       87.86922916        1.54543606
      112.91479       88.47817580        1.57974156
      113.01449       90.76532007        1.56695641
      113.11418       89.68843772        1.55236835
      113.21387       90.42493936        1.55167847
      113.31357       90.75807455        1.72645042
      113.41326       92.34293156        1.65508301
      113.51296       91.12084328        1.54645192
      113.61265       91.61950172        1.49627461
      113.71234       91.78799437        1.43052248
      113.81204       90.77843779        1.62976421
      113.91173       91.31065896        1.58392485
      114.01142       90.70543266        1.56273259
      114.11112       86.53475057        1.52534947
      114.21081       84.46242315        1.51776394
      114.31050       86.85193831        1.74552819
      114.41020       84.15580340        1.58758145
      114.50989       81.40322723        1.46158699
      114.60958       78.67947065        1.39040316
      114.70928       73.98890019        1.30021263
      114.80897       73.09381010        1.46568754
      114.90866       72.68747358        1.37857223
      115.00836       71.46253017        1.36045929
      115.10805       69.72481541        1.35105370
      115.20774       69.29731783        1.36726784
      115.30744       70.40799195        1.58246605
      115.40713       71.70323096        1.44652308
      115.50682       66.99584939        1.31982274
      115.60652       70.63545900        1.30626942
      115.70621       71.20672238        1.26051061
      115.80590       74.37117837        1.50297435
      115.90560       74.55008570        1.36389180
      116.00529       77.27888166        1.40425751
      116.10498       77.60416381        1.42192945
      116.20468       85.15344502        1.52408846
      116.30437       89.94081632        1.86749329
      116.40406       88.97785414        1.61772272
      116.50376       95.30260143        1.58249103
      116.60345      100.38737133        1.55934659
      116.70314      109.82025495        1.58200883
      116.80284      118.77996531        1.95552054
      116.90253      125.15528769        1.80608365
      117.00222      136.78541299        1.87396357
      117.10192      144.26881273        1.97662322
      117.20161      148.19932088        2.02803503
      117.30131      153.23316104        2.46809504
      117.40100      157.92439599        2.10679812
      117.50069      165.68192968        2.05006418
      117.60039      174.29135993        2.01285218
      117.70008      181.43545719        1.99006470
      117.79977      185.84989929        2.46848484
      117.89947      189.08619584        2.16477477
      117.99916      191.10540392        2.20240998
      118.09885      197.49616971        2.28141918
      118.19855      192.18151234        2.35672318
      118.29824      199.51678272        2.63310431
      118.39793      200.85657167        2.39877958
      118.49763      203.15015315        2.27663795
      118.59732      206.44024679        2.21602835
      118.69701      199.20182481        2.26712403
      118.79671      193.18869440        2.41023336
      118.89640      191.18893583        2.23537488
      118.99609      184.86031414        2.19523038
      119.09579      185.79945853        2.22652467
      119.19548      178.52098867        2.38410486
      119.29517      173.17138654        2.43905541
      119.39487      164.34277211        2.18356390
      119.49456      160.54080050        2.03350527
      119.59425      148.52764656        1.89873300
      119.69395      147.00892714        1.99281101
      119.79364      140.07657333        1.96544822
      119.89333      135.46643662        1.87033320
      119.99303      127.70341763        1.77253436
      120.09272      128.44868877        1.81826200
      120.19241      123.80489611        2.00615204
      120.29211      124.89631405        1.99450633
      120.39180      120.52083215        1.86893099
      120.49149      120.02851052        1.73461599
      120.59119      116.27161076        1.65685869
      120.69088      116.17716865        1.78288650
      120.79057      117.29650873        1.75306556
      120.89027      117.54135029        1.72291184
      120.98996      115.56394344        1.69511143
      121.08966      116.48882931        1.71467701
      121.18935      118.59291486        1.98328141
      121.28904      118.65146864        1.93348597
      121.38874      115.31115462        1.80225749
      121.48843      119.31177682        1.73176749
      121.58812      118.24869681        1.64423363
      121.68782      120.23526648        1.83689673
      121.78751      123.30123294        1.77275244
      121.88720      118.10484784        1.71250072
      121.98690      121.03324119        1.74676970
      122.08659      118.37801610        1.76193421
      122.18628      118.88201428        2.04833041
      122.28598      113.91884215        1.88526316
      122.38567      115.92057698        1.82150323
      122.48536      117.07622326        1.73165810
      122.58506      115.66119635        1.63004055
      122.68475      112.27181538        1.81964825
      122.78444      111.22770972        1.70535124
      122.88414      109.35838847        1.67649649
      122.98383      105.02268804        1.67633521
      123.08352      101.45728303        1.63334174
      123.18322      101.01043675        1.90076403
      123.28291       96.71243273        1.69009740
      123.38260       98.11025407        1.64338993
      123.48230       97.77661906        1.58120599
      123.58199       93.64106926        1.44610855
      123.68168       91.40554611        1.63021553
      123.78138       90.82580834        1.46608729
      123.88107       89.51903444        1.42178431
      123.98076       87.57229302        1.43215536
      124.08046       85.55614136        1.40055946
      124.18015       85.04426604        1.58046166
      124.27984       84.25427306        1.40935918
      124.37954       80.69022867        1.30132112
      124.47923       80.38919604        1.26803338
      124.57893       72.52978644        1.28286782
