        5.04651       57.16581111        2.57832750
        5.14621       55.50768783        2.44842301
        5.24590       54.04707753        2.38122617
        5.34559       52.75803150        2.15767698
        5.44529       52.55890153        2.34290592
        5.54498       51.42799747        1.94940501
        5.64467       48.04878770        1.86757988
        5.74437       54.31337043        1.79277050
        5.84406       49.77463693        1.73654206
        5.94375       51.36618422        1.76182091
        6.04345       50.71012715        1.70093216
        6.14314       49.61585260        1.54043978
        6.24283       50.32631440        1.60268312
        6.34253       48.31174122        1.49761480
        6.44222       46.78413102        1.55171934
        6.54191       48.21175504        1.49235099
        6.64161       47.35509503        1.40110253
        6.74130       45.37839029        1.37699231
        6.84099       48.12422239        1.40791054
        6.94069       47.15329636        1.41457251
        7.04038       49.78264542        1.34178859
        7.14007       45.68401865        1.28251712
        7.23977       48.34951148        1.29645551
        7.33946       49.27397207        1.32886846
        7.43915       48.14939263        1.29642411
        7.53885       46.47482662        1.25010683
        7.63854       47.08178508        1.20262656
        7.73823       45.66270638        1.22973393
        7.83793       45.96533176        1.19397747
        7.93762       46.65105350        1.25477662
        8.03732       47.01601901        1.12972445
        8.13701       46.65184280        1.12024651
        8.23670       46.94477347        1.13962667
        8.33640       45.46158308        1.12172865
        8.43609       48.96121278        1.21717215
        8.53578       47.57988601        1.11756327
        8.63548       46.96022864        1.09747712
        8.73517       47.16584102        1.07892189
        8.83486       45.88237911        1.06668420
        8.93456       46.19950917        1.06487867
        9.03425       47.55156931        1.04876270
        9.13394       47.93185954        1.05494458
        9.23364       45.73788017        1.04548369
        9.33333       46.01231239        1.06997579
        9.43302       48.22414789        1.09588409
        9.53272       45.78272529        1.03161895
        9.63241       45.87632104        1.06186519
        9.73210       46.62321852        1.06835664
        9.83180       46.89527412        1.11647391
        9.93149       47.02515920        1.11002125
       10.03118       46.95335432        1.06723410
       10.13088       46.47519779        1.03632601
       10.23057       49.51514043        1.12029517
       10.33026       48.14456518        1.14182000
       10.42996       47.51918268        1.11881256
       10.52965       45.96036248        1.06553880
       10.62934       46.90169137        1.07901721
       10.72904       46.41755703        1.08929058
       10.82873       48.08404886        1.10315011
       10.92842       48.55819402        1.12717636
       11.02812       48.85150232        1.07712282
       11.12781       47.76324429        1.10321907
       11.22750       48.79686829        1.12624278
       11.32720       48.92435637        1.15805099
       11.42689       51.28533929        1.14462313
       11.52658       52.18029417        1.14084314
       11.62628       55.57959291        1.19033509
       11.72597       55.33853959        1.21296824
       11.82567       57.49245268        1.27082553
       11.92536       62.91137085        1.24428497
       12.02505       67.36615702        1.29378347
       12.12475       72.30745160        1.33940674
       12.22444       80.37975276        1.49786282
       12.32413       90.41639858        1.61333908
       12.42383      104.92757746        1.65033413
       12.52352      120.28976586        1.75678109
       12.62321      141.69108534        1.96179268
       12.72291      164.30206738        2.05663233
       12.82260      185.45707370        2.37599578
       12.92229      206.57914131        2.27820818
       13.02199      236.59603414        2.42001123
       13.12168      266.39013441        2.61351027
       13.22137      292.54608583        2.82818441
       13.32107      321.73841064        3.06233817
       13.42076      348.03747572        3.06655554
       13.52045      365.35256335        3.17987072
       13.62015      366.15066185        3.08472785
       13.71984      345.36904986        3.12106115
       13.81953      318.42135795        3.04695194
       13.91923      281.08262599        2.68836145
       14.01892      225.75418445        2.34468358
       14.11861      172.20777857        2.13551810
       14.21831      137.21333792        1.90764079
       14.31800      107.41634206        1.77626159
       14.41769       82.04636447        1.49444475
       14.51739       69.37973896        1.34055216
       14.61708       61.56272200        1.26582724
       14.71677       56.54139468        1.23279803
       14.81647       51.90789027        1.23724981
       14.91616       50.28281879        1.11979902
       15.01585       47.44398985        1.10723484
       15.11555       48.20023710        1.12899089
       15.21524       47.56935648        1.15593270
       15.31493       50.18954374        1.21608613
       15.41463       47.78609959        1.14881189
       15.51432       46.72859792        1.10078864
       15.61402       46.62347938        1.12738873
       15.71371       46.54294898        1.11867427
       15.81340       46.20257057        1.15947177
       15.91310       46.19776906        1.12654945
       16.01279       47.82349691        1.09753810
       16.11248       47.52352542        1.12345920
       16.21218       46.19683587        1.13830935
       16.31187       48.36843327        1.16769400
       16.41156       45.80794029        1.11510608
       16.51126       48.06185385        1.16161550
       16.61095       50.30512346        1.14599452
       16.71064       50.40065509        1.18335231
       16.81034       51.97546704        1.20540103
       16.91003       50.87933941        1.15818348
       17.00972       55.87265312        1.16533644
       17.10942       55.40140034        1.22645942
       17.20911       62.03619516        1.30957385
       17.30880       63.62893561        1.33784467
       17.40850       67.86996835        1.38156150
       17.50819       69.95887330        1.36206555
       17.60788       74.18699551        1.44637351
       17.70758       74.67150966        1.45709144
       17.80727       73.67997214        1.46520398
       17.90696       69.47622233        1.33008811
       18.00666       67.82856491        1.33722972
       18.10635       63.31062070        1.25644186
       18.20604       58.32581402        1.32275582
       18.30574       57.01105725        1.24633614
       18.40543       53.41294077        1.17637311
       18.50512       54.08346860        1.22112385
       18.60482       54.22130396        1.20350901
       18.70451       52.92725460        1.25649511
       18.80420       52.28876586        1.17322073
       18.90390       49.55270982        1.12981233
       19.00359       47.96628726        1.08246265
       19.10328       47.19188560        1.13591962
       19.20298       47.66743116        1.17717162
       19.30267       45.35257570        1.10258109
       19.40237       46.22493055        1.10057029
       19.50206       45.80714455        1.12311403
       19.60175       46.01494813        1.11304465
       19.70145       44.68979941        1.15014855
       19.80114       47.69785238        1.12708078
       19.90083       45.17870278        1.05975028
       20.00053       46.85689409        1.09846819
       20.10022       47.00110562        1.10833389
       20.19991       47.68169119        1.19350909
       20.29961       47.49822361        1.12867117
       20.39930       48.49561289        1.17495323
       20.49899       51.39923843        1.18872350
       20.59869       50.54361521        1.20030429
       20.69838       53.10774647        1.27586055
       20.79807       51.97273818        1.20379338
       20.89777       55.95611244        1.22098660
       20.99746       56.58248163        1.24003669
       21.09715       56.15521591        1.30119360
       21.19685       54.72393204        1.27774474
       21.29654       56.30441489        1.26437413
       21.39623       57.58089811        1.27875068
       21.49593       56.81910536        1.25207434
       21.59562       51.89416201        1.22518264
       21.69531       51.82169282        1.27345861
       21.79501       49.93007208        1.14342508
       21.89470       48.08907194        1.09682589
       21.99439       47.25453161        1.13333138
       22.09409       46.96264688        1.13261374
       22.19378       45.90322902        1.18913644
       22.29347       44.82586454        1.09438015
       22.39317       46.85509102        1.14794419
       22.49286       45.67097031        1.13239282
       22.59255       47.41235503        1.16741733
       22.69225       49.50250604        1.25714298
       22.79194       51.20926600        1.14839910
       22.89163       51.82859166        1.13275841
       22.99133       56.77442866        1.21866430
       23.09102       62.31407589        1.32620238
       23.19072       65.27678081        1.36070679
       23.29041       69.87773937        1.39054045
       23.39010       67.52543134        1.38114095
       23.48980       67.13680666        1.38214181
       23.58949       64.91483288        1.37719515
       23.68918       62.75072391        1.42375573
       23.78888       55.23978510        1.19017876
       23.88857       52.67429890        1.17731475
       23.98826       49.77540820        1.16990464
       24.08796       45.79350541        1.10011676
       24.18765       45.26433402        1.17193071
       24.28734       43.20914707        1.09008883
       24.38704       46.12223424        1.14517638
       24.48673       44.07026916        1.11532840
       24.58642       43.65216725        1.14673689
       24.68612       45.74443035        1.17243242
       24.78581       42.75200082        1.04472538
       24.88550       48.23165639        1.10942206
       24.98520       47.01763734        1.13583999
       25.08489       44.47310303        1.12663359
       25.18458       47.55349269        1.18959937
       25.28428       47.28441215        1.14330134
       25.38397       48.85547928        1.15655859
       25.48366       51.32569736        1.19263226
       25.58336       55.57344528        1.29368628
       25.68305       63.79943681        1.35985022
       25.78274       67.97293111        1.32486465
       25.88244       83.58498928        1.50684907
       25.98213      105.89199097        1.71078629
       26.08182      129.06269454        1.93912772
       26.18152      151.55866753        2.15295550
       26.28121      183.10170441        2.23990518
       26.38090      193.22925504        2.32057914
       26.48060      196.51282881        2.40495395
       26.58029      189.33158507        2.46248030
       26.67998      172.44276304        2.21913125
       26.77968      149.66646632        2.04223316
       26.87937      113.22746031        1.74952796
       26.97907       94.75566095        1.58668205
       27.07876       79.26802989        1.56206797
       27.17845       77.42402290        1.47530233
       27.27815       77.18745005        1.43850796
       27.37784       82.41740672        1.54460515
       27.47753       86.47909169        1.55903903
       27.57723       85.69948020        1.62575049
       27.67692       85.91842072        1.58892457
       27.77661       76.78154846        1.43327082
       27.87631       70.33823021        1.34882522
       27.97600       59.18891281        1.26481014
       28.07569       55.41681307        1.29518989
       28.17539       52.68328931        1.20887555
       28.27508       50.08435245        1.17910865
       28.37477       49.06544530        1.19478996
       28.47447       51.41987140        1.21366837
       28.57416       49.44406561        1.28657615
       28.67385       49.57490524        1.14615921
       28.77355       53.15442721        1.16554096
       28.87324       57.19053683        1.24135112
       28.97293       58.43801033        1.25779620
       29.07263       57.59884420        1.36114009
       29.17232       57.15245789        1.23731749
       29.27201       56.44509460        1.25232879
       29.37171       51.54949374        1.23094319
       29.47140       49.70412099        1.19469015
       29.57109       49.04440288        1.25839219
       29.67079       49.97511312        1.15648804
       29.77048       46.53343946        1.11840927
       29.87017       45.64385464        1.08589254
       29.96987       45.23047721        1.13340489
       30.06956       45.45109120        1.17217135
       30.16925       46.74322006        1.11930049
       30.26895       46.49518567        1.12058152
       30.36864       48.73368866        1.16607923
       30.46833       48.07272551        1.16985104
       30.56803       55.17176551        1.32418014
       30.66772       54.33214802        1.22278886
       30.76742       58.69800228        1.24570298
       30.86711       61.83051760        1.30411690
       30.96680       61.95968536        1.31302145
       31.06650       60.65897715        1.36218255
       31.16619       63.03726897        1.30575954
       31.26588       59.68856001        1.26282996
       31.36558       56.54755892        1.24511848
       31.46527       58.51724533        1.31802435
       31.56496       59.72486707        1.35299193
       31.66466       61.85944425        1.28779750
       31.76435       71.09594037        1.37957098
       31.86404       78.99919351        1.43542924
       31.96374       85.94873369        1.53225935
       32.06343       87.56703158        1.60056977
       32.16312       87.94778264        1.50749036
       32.26282       81.39159149        1.48536675
       32.36251       80.38494722        1.53524745
       32.46220       75.08005909        1.51013583
       32.56190       69.88414549        1.48257234
       32.66159       67.73729568        1.38604880
       32.76128       64.34612246        1.32045300
       32.86098       64.43874879        1.34125571
       32.96067       62.90722503        1.34175346
       33.06036       60.24749482        1.33691800
       33.16006       57.92997792        1.23449940
       33.25975       57.37928812        1.26850760
       33.35944       52.64536841        1.22143526
       33.45914       56.06506739        1.30858363
       33.55883       57.44020764        1.32769727
       33.65852       59.55323642        1.26070899
       33.75822       65.23924137        1.31744698
       33.85791       72.11400597        1.39099991
       33.95760       82.40235683        1.53122907
       34.05730       91.52433958        1.59837353
       34.15699      106.37473559        1.69634519
       34.25668      121.09684181        1.80404689
       34.35638      145.12949613        2.02674473
       34.45607      188.21772597        2.43267336
       34.55577      228.84422235        2.55704950
       34.65546      293.15642689        2.77737343
       34.75515      366.80537613        3.16798022
       34.85485      418.88461090        3.36050311
       34.95454      444.37865210        3.57095224
       35.05423      434.94792316        3.65377395
       35.15393      382.33993763        3.21496244
       35.25362      313.95451440        2.95718417
       35.35331      253.36602371        2.72501407
       35.45301      187.64352353        2.44510340
       35.55270      145.93550364        2.09871215
       35.65239      109.79743020        1.75712037
       35.75209       89.58050221        1.57491906
       35.85178       81.32022015        1.49829159
       35.95147       71.26574230        1.43521294
       36.05117       67.84118913        1.37137189
       36.15086       66.15913681        1.30212996
       36.25055       63.35082245        1.33112834
       36.35025       62.10234704        1.34371567
       36.44994       59.19594542        1.33799417
       36.54963       57.23263548        1.26285725
       36.64933       59.36325943        1.26705462
       36.74902       56.70443522        1.25117891
       36.84871       53.67371928        1.20837318
       36.94841       51.53555083        1.28039369
       37.04810       49.81977719        1.10996484
       37.14779       50.90497849        1.14503970
       37.24749       49.54150582        1.16096757
       37.34718       49.77700531        1.19341943
       37.44687       47.74095520        1.25538639
       37.54657       47.21714222        1.13975970
       37.64626       47.48028338        1.13855942
       37.74595       46.66090030        1.11101272
       37.84565       45.91075386        1.16603332
       37.94534       46.54644700        1.19611491
       38.04503       47.06765543        1.08713549
       38.14473       45.96078746        1.08476198
       38.24442       48.84242086        1.13880422
       38.34412       47.51908341        1.17430931
       38.44381       48.53419182        1.28330794
       38.54350       50.12922235        1.16266653
       38.64320       49.89281425        1.15639636
       38.74289       50.04557882        1.17331912
       38.84258       54.04302830        1.22239947
       38.94228       55.23539116        1.29625624
       39.04197       58.77513392        1.20585829
       39.14166       63.84092737        1.30755298
       39.24136       69.40142173        1.35987449
       39.34105       69.09259168        1.40412744
       39.44074       71.49490189        1.55809641
       39.54044       71.72349358        1.39538270
       39.64013       71.76875647        1.39157016
       39.73982       67.06885687        1.35047532
       39.83952       62.08761049        1.29036695
       39.93921       60.24883336        1.34771401
       40.03890       57.97634137        1.21006857
       40.13860       57.55959416        1.20413867
       40.23829       56.01076258        1.22978385
       40.33798       56.19904566        1.27025771
       40.43768       56.33141983        1.33060602
       40.53737       55.61573807        1.22707262
       40.63706       55.32306981        1.24952262
       40.73676       58.16803031        1.27934101
       40.83645       58.90745579        1.29822743
       40.93614       63.82764469        1.37423170
       41.03584       66.64104562        1.32155289
       41.13553       75.85316327        1.41187061
       41.23522       94.77256162        1.61725720
       41.33492      114.34018627        1.86024714
       41.43461      139.43956020        2.12115657
       41.53430      163.99513961        2.15510330
       41.63400      190.51930507        2.37459443
       41.73369      209.25891794        2.43501693
       41.83338      214.06920464        2.52868326
       41.93308      216.19280697        2.51866644
       42.03277      221.12031791        2.32834025
       42.13247      246.59397421        2.58544022
       42.23216      296.11488756        2.84031340
       42.33185      360.70339855        3.36738813
       42.43155      417.02133318        3.56808691
       42.53124      478.23583387        3.70082886
       42.63093      524.94381190        3.88566838
       42.73063      533.67051589        3.93448682
       42.83032      523.18476885        3.96469245
       42.93001      493.19785421        3.70483557
       43.02971      427.86507215        3.25889032
       43.12940      345.54157119        2.98638647
       43.22909      267.53842798        2.76011775
       43.32879      200.23420910        2.51340652
       43.42848      151.97940634        2.14027779
       43.52817      114.71486096        1.77808138
       43.62787       90.43471638        1.57282294
       43.72756       75.51724737        1.47082514
       43.82725       65.41389023        1.42903826
       43.92695       60.07149135        1.24166473
       44.02664       57.80868747        1.21216954
       44.12633       55.57351096        1.23272331
       44.22603       53.51933084        1.25907139
       44.32572       55.67493038        1.35357645
       44.42541       53.51996183        1.26697647
       44.52511       53.45244426        1.23211736
       44.62480       54.21555452        1.25845621
       44.72449       56.93937822        1.24992005
       44.82419       59.76376278        1.43702800
       44.92388       67.71984900        1.27608196
       45.02357       75.77126170        1.36112399
       45.12327       88.30009092        1.51385693
       45.22296      107.97433884        1.71883164
       45.32265      132.34223271        2.10602409
       45.42235      151.85969058        2.05460745
       45.52204      177.93624774        2.20246671
       45.62174      199.78018051        2.37665673
       45.72143      225.04520883        2.52348984
       45.82112      228.69938626        2.78452723
       45.92082      230.43552726        2.37291972
       46.02051      228.60383777        2.41387868
       46.12020      227.31817894        2.41518204
       46.21990      215.25350984        2.46927999
       46.31959      198.28587377        2.55857652
       46.41928      179.11094124        2.24539831
       46.51898      155.98680204        2.10638907
       46.61867      124.88782555        1.87401984
       46.71836      101.88933769        1.73535304
       46.81806       85.34989692        1.64628959
       46.91775       73.47289910        1.33104403
       47.01744       65.73838526        1.28877646
       47.11714       64.73697530        1.30808432
       47.21683       69.31418191        1.39355523
       47.31652       76.05486481        1.59274867
       47.41622       89.09871832        1.62510297
       47.51591      101.12842610        1.73484736
       47.61560      118.14067062        1.85995624
       47.71530      132.24132974        1.98939744
       47.81499      144.78807561        2.13431584
       47.91468      159.54356837        1.96040096
       48.01438      170.06530728        2.02525806
       48.11407      172.99174710        2.11905827
       48.21376      177.03305912        2.23846787
       48.31346      165.59275121        2.24137896
       48.41315      158.07490080        2.04111485
       48.51284      142.44834710        2.00156502
       48.61254      126.77655278        1.88016357
       48.71223      108.84147276        1.77314446
       48.81192       89.23233719        1.60096983
       48.91162       75.03401073        1.31564994
       49.01131       64.78400616        1.26504638
       49.11100       57.31911830        1.23255294
       49.21070       55.98710917        1.27887932
       49.31039       51.09603052        1.25718875
       49.41009       50.90568166        1.18543268
       49.50978       49.84859960        1.19728946
       49.60947       49.47886813        1.20155724
       49.70917       49.66294749        1.24843487
       49.80886       50.45885027        1.22476814
       49.90855       48.45848920        1.09326966
       50.00825       48.64523168        1.11851766
       50.10794       49.20115196        1.15051399
       50.20763       51.54972591        1.23047697
       50.30733       53.17813459        1.30918442
       50.40702       54.98043428        1.24841959
       50.50671       54.83126132        1.25037950
       50.60641       57.03541304        1.27716930
       50.70610       54.13097933        1.28013120
       50.80579       59.23981753        1.32174388
       50.90549       55.62368837        1.15457342
       51.00518       55.86579623        1.16735195
       51.10487       55.21683067        1.19962536
       51.20457       55.20023430        1.27691611
       51.30426       54.45196867        1.26160160
       51.40395       56.08107460        1.22749135
       51.50365       61.00146465        1.29505339
       51.60334       60.47117836        1.31485238
       51.70303       58.52433528        1.37354485
       51.80273       61.17420890        1.28823940
       51.90242       62.46129276        1.21626569
       52.00211       61.82233619        1.21572355
       52.10181       62.70780656        1.26319077
       52.20150       64.83021045        1.41456928
       52.30119       63.63592220        1.34998682
       52.40089       62.77293321        1.31976654
       52.50058       62.10477068        1.33749199
       52.60027       59.25458021        1.32415176
       52.69997       59.99390043        1.46021462
       52.79966       61.98519964        1.24794288
       52.89935       66.52097959        1.24759281
       52.99905       73.88311692        1.33658765
       53.09874       89.26218532        1.51714954
       53.19844       98.20725871        1.82262328
       53.29813      109.57777282        1.71130687
       53.39782      120.26636524        1.85497944
       53.49752      132.24187397        1.95443726
       53.59721      141.50404469        2.02053039
       53.69690      145.83616150        2.25084061
       53.79660      150.58839488        1.91618244
       53.89629      147.02455351        1.87272090
       53.99598      146.18868704        1.91309578
       54.09568      133.46734561        1.90826805
       54.19537      124.87446696        2.01274347
       54.29506      112.12407774        1.75160442
       54.39476      104.08188609        1.70043093
       54.49445       97.92041091        1.65030140
       54.59414       89.75716955        1.60370917
       54.69384       89.40696927        1.70752884
       54.79353       87.43937040        1.44799324
       54.89322       82.07249681        1.39756483
       54.99292       81.40097038        1.43259238
       55.09261       74.38010715        1.42380504
       55.19230       67.05808692        1.45146829
       55.29200       67.35754906        1.35401092
       55.39169       64.20696122        1.36392129
       55.49138       59.27823134        1.30546277
       55.59108       55.19896669        1.29997159
       55.69077       56.67545312        1.35192029
       55.79046       53.72840106        1.15069844
       55.89016       57.94117520        1.19228154
       55.98985       56.16082728        1.18127140
       56.08954       60.52430501        1.26690515
       56.18924       65.62353613        1.42391577
       56.28893       74.18581709        1.38596788
       56.38862       84.11440855        1.52694985
       56.48832       93.24536690        1.63567734
       56.58801      103.10743917        1.77013412
       56.68770      114.74232198        1.92790095
       56.78740      113.59762232        1.64157227
       56.88709      112.78284410        1.65195778
       56.98679      106.42844151        1.60591868
       57.08648       96.31098697        1.61902867
       57.18617       85.18565834        1.57616428
       57.28587       78.76956376        1.41593779
       57.38556       67.63548699        1.39627584
       57.48525       61.19728776        1.35345185
       57.58495       55.39285762        1.31695720
       57.68464       53.45514641        1.30493662
       57.78433       52.02863033        1.12617589
       57.88403       49.82185921        1.11479525
       57.98372       51.39502592        1.15035228
       58.08341       50.98500143        1.23880854
       58.18311       53.66082677        1.30017075
       58.28280       54.55870024        1.23485840
       58.38249       53.81451941        1.28144711
       58.48219       53.56962953        1.30612468
       58.58188       52.21596048        1.30355715
       58.68157       54.41839321        1.30413744
       58.78127       53.78839127        1.13408495
       58.88096       53.95971029        1.11913652
       58.98065       54.68855689        1.16959928
       59.08035       55.90854310        1.26191856
       59.18004       59.47894166        1.32050193
       59.27973       58.10567167        1.23134154
       59.37943       61.83031628        1.31222174
       59.47912       65.01110742        1.40083646
       59.57881       69.41899008        1.51662527
       59.67851       76.89519433        1.48848966
       59.77820       82.48779101        1.41742266
       59.87789       92.72229005        1.49786046
       59.97759      102.78367359        1.65015071
       60.07728      103.95634564        1.79711147
       60.17697      105.11791945        1.72153762
       60.27667      108.42989761        1.70008691
       60.37636      106.68343823        1.71894544
       60.47605      101.48373735        1.74872502
       60.57575       97.67280994        1.87999715
       60.67544       92.29991244        1.56989581
       60.77514       87.31380655        1.45144357
       60.87483       76.14783585        1.32873945
       60.97452       70.83533706        1.34992333
       61.07422       66.66358986        1.47096538
       61.17391       66.05257562        1.26832941
       61.27360       64.97605000        1.30257227
       61.37330       68.39828748        1.38616614
       61.47299       68.84391677        1.45181461
       61.57268       68.48071532        1.64658930
       61.67238       72.24375535        1.37856804
       61.77207       73.82170640        1.35728282
       61.87176       71.26465005        1.31859194
       61.97146       70.74504980        1.36395556
       62.07115       67.85974782        1.51278860
       62.17084       69.73718416        1.34368841
       62.27054       65.71499108        1.35984844
       62.37023       66.72568676        1.42490451
       62.46992       65.49472276        1.46002110
       62.56962       66.60490004        1.65372605
       62.66931       69.41200527        1.36014613
       62.76900       74.63660059        1.37492719
       62.86870       84.77014114        1.43377707
       62.96839       92.16715973        1.54303363
       63.06808       97.66018260        1.76783868
       63.16778      103.19506057        1.61334437
       63.26747      111.64626947        1.73695412
       63.36716      117.35573692        1.84834001
       63.46686      117.00984996        1.90084004
       63.56655      125.12718584        2.08875493
       63.66624      129.29852663        1.80481763
       63.76594      145.82841650        1.86270915
       63.86563      164.01364884        1.97035329
       63.96532      172.49058881        2.11483469
       64.06502      174.92345786        2.28167181
       64.16471      172.07451464        2.09307165
       64.26440      163.96637700        2.12658444
       64.36410      151.92314568        2.08779803
       64.46379      139.41710434        2.11459574
       64.56349      123.92080033        2.02830847
       64.66318      105.47462514        1.63706796
       64.76287       87.96639618        1.47592681
       64.86257       73.37342858        1.34536739
       64.96226       63.72439491        1.31293968
       65.06195       56.54361893        1.33702432
       65.16165       54.90181096        1.18841321
       65.26134       54.12697455        1.20759427
       65.36103       53.46309372        1.25231903
       65.46073       54.38837150        1.30465230
       65.56042       55.98614558        1.38257740
       65.66011       56.92609143        1.21566718
       65.75981       57.70993622        1.21179591
       65.85950       60.67060999        1.23468526
       65.95919       62.01507380        1.30674839
       66.05889       65.17730397        1.38580051
       66.15858       69.41743922        1.36013345
       66.25827       78.83304916        1.49938375
       66.35797       87.01784148        1.64133062
       66.45766       98.31460894        1.85417901
       66.55735      111.02221219        1.97038783
       66.65705      123.87627007        1.84668563
       66.75674      137.60609225        1.89714317
       66.85643      151.72944932        1.97007237
       66.95613      163.06524963        2.12407874
       67.05582      168.97386873        2.17875145
       67.15551      170.14380462        2.08058200
       67.25521      166.91390212        2.16293703
       67.35490      152.07370193        2.17266989
       67.45459      137.53276917        2.17845276
       67.55429      123.33614442        1.97604458
       67.65398      105.24855693        1.63561056
       67.75367       88.66475564        1.48838081
       67.85337       80.83348500        1.43838745
       67.95306       75.08441251        1.48213954
       68.05275       74.66825040        1.39950965
       68.15245       78.11677314        1.41924570
       68.25214       84.55903359        1.56747650
       68.35184       91.18097904        1.69657906
       68.45153      101.09046686        1.96707004
       68.55122      105.11919722        1.72807757
       68.65092      117.73312112        1.70517514
       68.75061      124.00944684        1.76833123
       68.85030      124.44898678        1.80553130
       68.95000      128.85083377        2.08326653
       69.04969      123.03251388        1.71890739
       69.14938      111.92131078        1.68536107
       69.24908      104.41478536        1.73823850
       69.34877       93.60160718        1.70175799
       69.44846       84.66872523        1.87697457
       69.54816       75.57225522        1.38228870
       69.64785       65.04741909        1.26402365
       69.74754       59.73636405        1.22334720
       69.84724       56.43959584        1.22001584
       69.94693       53.87473530        1.34511170
       70.04662       47.98479950        1.04371868
       70.14632       45.67996895        1.05885421
       70.24601       44.37660503        1.11740715
       70.34570       46.54177750        1.21102616
       70.44540       46.31439402        1.42337380
       70.54509       49.22918165        1.14876470
       70.64478       50.22001289        1.15865798
       70.74448       49.23999740        1.16544162
       70.84417       50.04163371        1.21919867
       70.94386       51.16527174        1.35333402
       71.04356       50.91902075        1.11717239
       71.14325       53.95375723        1.19516246
       71.24294       53.08887185        1.24734587
       71.34264       53.14751703        1.32334855
       71.44233       55.49294350        1.50907110
       71.54202       54.81846797        1.22105461
       71.64172       54.51815848        1.18450669
       71.74141       52.89531542        1.14550621
       71.84110       52.71035486        1.18369651
       71.94080       50.25080838        1.25929778
       72.04049       52.82628634        1.09294332
       72.14019       52.81706716        1.13864272
       72.23988       50.87314558        1.16916483
       72.33957       51.50180067        1.31403789
       72.43927       53.22133314        1.47053104
       72.53896       51.50657938        1.15982859
       72.63865       53.45765872        1.15503163
       72.73835       57.38264712        1.17052606
       72.83804       56.20282335        1.22320880
       72.93773       59.08222166        1.33231915
       73.03743       59.10749849        1.15671479
       73.13712       60.48916641        1.23407774
       73.23681       61.83345763        1.31089951
       73.33651       61.78495548        1.44188318
       73.43620       60.74591346        1.54851961
       73.53589       63.71927875        1.27951505
       73.63559       63.22817242        1.25453832
       73.73528       63.95330217        1.25601099
       73.83497       61.67214480        1.30750976
       73.93467       67.96973368        1.44571942
       74.03436       65.62503911        1.25709170
       74.13405       65.45389527        1.30881974
       74.23375       63.26171443        1.34019566
       74.33344       63.97072199        1.48365307
       74.43313       65.11827621        1.55333953
       74.53283       66.90169909        1.33781239
       74.63252       67.69029917        1.33595701
       74.73221       69.26171329        1.34483468
       74.83191       75.58373576        1.49059655
       74.93160       76.83672101        1.51987797
       75.03129       79.69137454        1.37618830
       75.13099       84.35907118        1.46679096
       75.23068       87.49916120        1.55827427
       75.33037       95.92663960        1.79388318
       75.43007      101.77465535        1.87468204
       75.52976      108.72730632        1.68328953
       75.62945      117.96170753        1.75217984
       75.72915      124.85899688        1.79580772
       75.82884      129.18170974        1.96682996
       75.92854      137.79878426        1.90741947
       76.02823      140.98395920        1.80956462
       76.12792      147.21781094        1.93307917
       76.22762      148.95934655        2.05162777
       76.32731      154.57073715        2.36077217
       76.42700      148.31200341        2.18209417
       76.52670      150.79436530        2.03006632
       76.62639      140.48265721        1.93403248
       76.72608      132.08529016        1.84377736
       76.82578      124.41156374        2.06141835
       76.92547      121.57228866        1.63207200
       77.02516      123.06227949        1.70199998
       77.12486      121.05720028        1.77315722
       77.22455      129.26119499        1.95146064
       77.32424      129.90215836        2.40335325
       77.42394      133.66730137        1.94683391
       77.52363      132.84717641        1.87541042
       77.62332      139.21535539        1.91142060
       77.72302      144.08488376        1.94922902
       77.82271      141.75139293        2.26713766
       77.92240      149.35128778        1.78242559
       78.02210      146.49961949        1.90466658
       78.12179      141.85212470        2.00145579
       78.22148      138.75266085        2.09304723
       78.32118      136.97995364        2.41303738
       78.42087      127.85049604        1.83421763
       78.52056      122.35793704        1.85275424
       78.62026      115.51667819        1.78575815
       78.71995      108.16793989        1.73347017
       78.81964      105.06418298        1.90816954
       78.91934       95.23750690        1.40731505
       79.01903       85.17167562        1.45865933
       79.11872       74.86630247        1.42278485
       79.21842       71.57763482        1.48393873
       79.31811       65.38914114        1.59731435
       79.41780       64.83168128        1.29019323
       79.51750       68.82310548        1.35092053
       79.61719       65.72365388        1.32389121
       79.71689       63.17427206        1.34746945
       79.81658       66.16147606        1.46191331
       79.91627       64.28029198        1.22136727
       80.01597       62.57699474        1.23856920
       80.11566       64.50752230        1.31466392
       80.21535       63.69671852        1.39641381
       80.31505       64.12225759        1.66556099
       80.41474       65.30399960        1.29163620
       80.51443       67.47953454        1.30732273
       80.61413       74.45458438        1.41910813
       80.71382       78.61766908        1.50869968
       80.81351       82.14667818        1.73310074
       80.91321       88.21807395        1.32462718
       81.01290      110.62610333        1.60236747
       81.11259      126.17914713        1.84773431
       81.21229      141.74727089        2.11896086
       81.31198      151.92529923        2.44742040
       81.41167      171.57011630        2.03716991
       81.51137      198.56835343        2.25593992
       81.61106      212.03749805        2.43460925
       81.71075      226.65426823        2.60585282
       81.81045      239.88309655        2.84085334
       81.91014      257.48570209        2.26387025
       82.00983      275.63251475        2.50448375
       82.10953      285.53597481        2.85208596
       82.20922      293.85643105        3.21834511
       82.30891      296.81698024        3.39171207
       82.40861      294.93330050        2.74911256
       82.50830      286.23747460        2.70046684
       82.60799      289.04657267        2.92350408
       82.70769      287.01453041        3.17014184
       82.80738      284.80505697        3.01706382
       82.90707      281.58486526        2.43593509
       83.00677      271.71626214        2.54910081
       83.10646      263.05812829        2.95084397
       83.20615      255.63676692        3.23766293
       83.30585      244.93382024        3.00179580
       83.40554      222.97727314        2.38006503
       83.50524      206.51266259        2.23444744
       83.60493      190.50634409        2.36370789
       83.70462      171.39633769        2.52711994
       83.80432      158.59568702        2.12399159
       83.90401      139.19527984        1.66857406
       84.00370      117.53629706        1.59843083
       84.10340       95.01634890        1.71634298
       84.20309       88.66379329        2.01259338
       84.30278       84.87412895        1.60134037
       84.40248       75.88774175        1.33603343
       84.50217       71.49670091        1.27205757
       84.60186       71.54628676        1.43889353
       84.70156       69.29618249        1.85292893
       84.80125       65.98311516        1.25867912
       84.90094       65.25370154        1.12439824
       85.00064       64.07729215        1.14792824
       85.10033       63.52699369        1.35267224
       85.20002       66.41384930        2.37233818
       85.29972       67.24560831        1.25927199
       85.39941       69.17978667        1.30230789
       85.49910       64.93753999        1.22683209
       85.59880       67.28469021        1.40435471
       85.69849       66.89372021        2.51393292
       85.79818       64.16224784        1.16066785
       85.89788       65.31497278        1.14311399
       85.99757       63.06074974        1.15401421
       86.09726       63.43797453        1.32895347
       86.19696       64.63268279        2.57648806
       86.29665       61.47925369        1.18901873
       86.39634       62.44703632        1.21917945
       86.49604       61.85791237        1.19503948
       86.59573       57.51706183        1.22762164
       86.69542       57.64098901        2.56948294
       86.79512       54.51710306        1.03719632
       86.89481       55.06323529        1.02770939
       86.99451       53.59770666        1.05093895
       87.09420       50.58743997        1.13857177
       87.19389       50.83635784        2.70367678
       87.29359       50.45970558        1.09164625
       87.39328       53.88216083        1.14343831
       87.49297       50.00407146        1.06918001
       87.59267       48.89345879        1.07798746
       87.69236       56.16705046        3.45815583
       87.79205       47.86319247        0.99415156
       87.89175       49.32149080        1.00110951
       87.99144       51.36981018        1.06468790
       88.09113       50.61031537        1.12320864
       88.19083       59.61932784        6.45312380
       88.29052       47.51920193        1.09510628
       88.39021       48.15820947        1.10981822
       88.48991       50.63889213        1.09229508
       88.58960       52.75732831        1.07977319
       88.68929       47.29914501        7.91861437
       88.78899       48.46927459        0.99883030
       88.88868       49.48041618        0.98718904
       88.98837       50.68187404        1.03920285
       89.08807       49.70500462        1.05408436
       89.18776       44.83989383        8.14467582
       89.28745       49.27533659        1.06630584
       89.38715       52.51470728        1.11223126
       89.48684       54.33869656        1.10724480
       89.58653       57.00154667        1.11111357
       89.68623       60.01872260        9.24387586
       89.78592       60.01789499        1.10795802
       89.88561       62.96495366        1.11266846
       89.98531       64.18694349        1.15198485
       90.08500       67.84060828        1.22844836
       90.18469       63.63968754        9.92163318
       90.28439       74.86406863        1.31827039
       90.38408       78.96501886        1.37678968
       90.48377       81.82538161        1.37529149
       90.58347       90.47094052        1.42378793
       90.68316       94.18704922       11.31752800
       90.78286       92.16867996        1.37568855
       90.88255       92.89989543        1.34391953
       90.98224       96.23234774        1.41534103
       91.08194       98.66039922        1.48022770
       91.18163      107.16553718       12.31405455
       91.28132      100.78209236        1.54045258
       91.38102       97.66470146        1.55651471
       91.48071       97.12250591        1.51407256
       91.58040       92.00095842        1.42491506
       91.68010       82.24175997       10.18868580
       91.77979       89.25940585        1.34720702
       91.87948       85.07305911        1.29473857
       91.97918       81.29724279        1.31411974
       92.07887       77.53469171        1.33666939
       92.17856       81.82254501       10.44203887
       92.27826       75.39153624        1.36119301
       92.37795       74.80972859        1.38806821
       92.47764       75.16364782        1.32082356
       92.57734       79.71589216        1.31977719
       92.67703       73.84175563        8.24362412
       92.77672       80.10167993        1.27508857
       92.87642       83.00887259        1.27336344
       92.97611       85.00357275        1.34561955
       93.07580       91.65064168        1.59506787
       93.17550       89.76323685        2.96811556
       93.27519       89.35314317        1.45154772
       93.37488       88.96815403        1.40794482
       93.47458       96.40360278        1.48209909
       93.57427       99.13698331        1.73777986
       93.67396       95.78081766        2.30809501
       93.77366      100.20024166        1.46266585
       93.87335       97.71038713        1.37954362
       93.97304       95.01136664        1.41753307
       94.07274       92.30846835        1.81384144
       94.17243       91.47514738        2.06020592
       94.27212       89.38963157        1.51677052
       94.37182       90.31349685        1.48591038
       94.47151       86.75988974        1.39457128
       94.57121       91.43942508        1.88979996
       94.67090       87.82912778        1.87332918
       94.77059       83.65977254        1.42107964
       94.87029       79.58306587        1.26018555
       94.96998       74.03562852        1.23063390
       95.06967       71.94915332        1.39842487
       95.16937       65.66445125        1.82838927
       95.26906       65.00932765        1.40538313
       95.36875       62.82843687        1.25357442
       95.46845       63.12335362        1.20757844
       95.56814       63.34937527        1.39205002
       95.66783       57.90757325        1.49493988
       95.76753       56.57878472        1.22105316
       95.86722       56.49204487        1.03785052
       95.96691       54.43331488        1.05663869
       96.06661       53.91768237        1.34712540
       96.16630       51.93535244        1.40981773
       96.26599       52.54514482        1.27354667
       96.36569       51.87103250        1.13534632
       96.46538       50.75881219        1.08385633
       96.56507       48.22179943        1.30378482
       96.66477       48.90504749        1.27944459
       96.76446       45.84467668        1.10686426
       96.86415       47.72441259        0.97828240
       96.96385       48.17774904        1.01521668
       97.06354       48.17857361        1.37279265
       97.16323       47.69416613        1.30596922
       97.26293       47.27984451        1.22159888
       97.36262       46.44962251        1.12123052
       97.46231       47.80691451        1.04652466
       97.56201       49.16657378        1.35029874
       97.66170       51.46067082        1.24089347
       97.76139       50.39440001        1.11555464
       97.86109       55.42268563        1.05805553
       97.96078       53.93061589        1.06645920
       98.06047       56.05540203        1.51030321
       98.16017       55.66154322        1.33785995
       98.25986       59.66606760        1.32325096
       98.35956       57.97834687        1.23139936
       98.45925       59.08744685        1.16037024
       98.55894       64.48633272        1.58159376
       98.65864       68.01022624        1.39378437
       98.75833       63.31467269        1.25633472
       98.85802       69.32264695        1.22771442
       98.95772       72.98579290        1.25148666
       99.05741       72.53357262        1.73195147
       99.15710       72.87525879        1.49299491
       99.25680       76.15011406        1.47873877
       99.35649       76.23504902        1.40917358
       99.45618       80.87986552        1.35285623
       99.55588       85.06825372        1.85415091
       99.65557       87.47426702        1.55126402
       99.75526       87.70499054        1.45587714
       99.85496       86.61548342        1.37698479
       99.95465       84.30766578        1.33175412
      100.05434       87.38625115        1.93172654
      100.15404       84.52303893        1.60004189
      100.25373       84.88780766        1.58430767
      100.35342       86.55900302        1.59366764
      100.45312       83.80485792        1.43076309
      100.55281       83.55478930        1.87635508
      100.65250       83.35537696        1.52675669
      100.75220       82.02851984        1.40284183
      100.85189       79.65288910        1.32075591
      100.95158       80.16428416        1.28961111
      101.05128       82.56707074        1.86610773
      101.15097       75.45466385        1.47400489
      101.25066       79.37529605        1.49389635
      101.35036       80.29943674        1.51564255
      101.45005       77.78473434        1.40263679
      101.54974       71.38605448        1.67325625
      101.64944       74.57522416        1.39548644
      101.74913       73.44054081        1.30475632
      101.84882       76.62454114        1.29746104
      101.94852       76.55484617        1.36607630
      102.04821       77.58780445        1.65652029
      102.14791       79.24248423        1.50882799
      102.24760       80.82260993        1.51101266
      102.34729       80.56786436        1.50245922
      102.44699       79.14781143        1.51497484
      102.54668       82.37109013        1.62192418
      102.64637       86.27667366        1.48272467
      102.74607       84.32225153        1.39591794
      102.84576       85.46164615        1.37868757
      102.94545       87.48613679        1.58885940
      103.04515       86.78029039        1.67516741
      103.14484       85.51879558        1.55363170
      103.24453       83.24993421        1.50911424
      103.34423       83.28103702        1.49717941
      103.44392       82.30574179        1.61220891
      103.54361       83.84002429        1.58079148
      103.64331       86.97743723        1.46577909
      103.74300       86.89051856        1.39745295
      103.84269       84.42343207        1.35350895
      103.94239       83.03491082        1.61302825
      104.04208       83.65156752        1.56632124
      104.14177       80.67661772        1.49639136
      104.24147       80.67519156        1.49561698
      104.34116       80.68573391        1.50500127
      104.44085       80.41349588        1.70641367
      104.54055       82.34404755        1.56351271
      104.64024       81.86322922        1.46537137
      104.73993       75.45819611        1.34223061
      104.83963       74.01301461        1.28064564
      104.93932       72.31500593        1.53451642
      105.03901       73.89038342        1.46164022
      105.13871       72.84394141        1.39732951
      105.23840       71.43101391        1.38284809
      105.33809       70.29072846        1.37980852
      105.43779       69.80434731        1.59987164
      105.53748       70.89890766        1.44601008
      105.63717       68.25047224        1.30032519
      105.73687       65.70801768        1.21412205
      105.83656       61.72149307        1.14645707
      105.93626       58.33380595        1.41224470
      106.03595       59.36144312        1.29122726
      106.13564       59.64009213        1.25093065
      106.23534       56.96539000        1.23749667
      106.33503       54.85517135        1.22653629
      106.43472       55.47830437        1.45829074
      106.53442       52.66995181        1.23578470
      106.63411       52.46227074        1.12036462
      106.73380       52.81235052        1.07138312
      106.83350       54.81002897        1.07523865
      106.93319       55.88321882        1.40748386
      107.03288       53.78718118        1.22372433
      107.13258       55.87987193        1.21076955
      107.23227       56.78811870        1.23832340
      107.33196       55.26740763        1.21821223
      107.43166       58.10809802        1.50103064
      107.53135       56.51922355        1.27718713
      107.63104       58.97733832        1.18808065
      107.73074       62.38194683        1.17243691
      107.83043       59.92485315        1.13449141
      107.93012       62.95420086        1.53841253
      108.02982       63.16710228        1.34879489
      108.12951       61.48479983        1.26537833
      108.22920       64.13733406        1.27178110
      108.32890       64.01854644        1.25848370
      108.42859       65.44611056        1.61500248
      108.52828       65.59207471        1.37145704
      108.62798       65.39680654        1.24171599
      108.72767       66.85959597        1.20515907
      108.82736       67.73401029        1.23977981
      108.92706       63.84140576        1.52417766
      109.02675       66.19876516        1.35790750
      109.12644       64.22905353        1.30537954
      109.22614       68.10990394        1.34547957
      109.32583       68.60137631        1.47146009
      109.42552       68.25317176        1.54815196
      109.52522       66.29385874        1.37644867
      109.62491       64.58531715        1.29217617
      109.72461       63.51785294        1.22509611
      109.82430       62.14085660        1.13187367
      109.92399       61.62835458        1.46553860
      110.02369       60.25426895        1.26893373
      110.12338       59.89025076        1.25683565
      110.22307       57.70753877        1.22439316
      110.32277       57.25349626        1.24535580
      110.42246       60.85183265        1.56126667
      110.52215       56.45742973        1.27349929
      110.62185       57.22870591        1.20842251
      110.72154       52.66851123        1.08137658
      110.82123       55.20532025        1.14348658
      110.92093       54.91672146        1.33017434
      111.02062       57.30441123        1.25542342
      111.12031       57.58320093        1.26788258
      111.22001       56.28466437        1.22996677
      111.31970       56.66209997        1.33933980
      111.41939       54.42660782        1.35818505
      111.51909       58.92344933        1.28249123
      111.61878       61.29998297        1.23235479
      111.71847       61.29869866        1.14655298
      111.81817       64.30240252        1.27467066
      111.91786       65.41028732        1.35299211
      112.01755       67.18891203        1.33904484
      112.11725       71.52283609        1.39223267
      112.21694       71.02665667        1.38114027
      112.31663       73.22363985        1.54542647
      112.41633       72.30516106        1.50860902
      112.51602       78.29218447        1.44591903
      112.61571       77.63464277        1.37345958
      112.71541       83.80822459        1.34510252
      112.81510       83.92283631        1.50926328
      112.91479       88.18734774        1.57622861
      113.01449       89.92819898        1.55877954
      113.11418       89.44054226        1.54932504
      113.21387       89.64209671        1.54402473
      113.31357       92.97089954        1.74651102
      113.41326       91.88398157        1.64999816
      113.51296       95.74616852        1.58456991
      113.61265       93.41446789        1.51009543
      113.71234       91.19688223        1.42506712
      113.81204       94.40394452        1.66125532
      113.91173       90.50224693        1.57595484
      114.01142       88.45842100        1.54225399
      114.11112       88.71695656        1.54370109
      114.21081       85.50983105        1.52633177
      114.31050       89.83912425        1.77446714
      114.41020       89.03820034        1.63233446
      114.50989       85.53274246        1.49756442
      114.60958       86.29366582        1.45568733
      114.70928       83.27446836        1.37905349
      114.80897       85.33860879        1.58348199
      114.90866       86.44184437        1.50322518
      115.00836       85.92539998        1.49169571
      115.10805       85.84044793        1.49907457
      115.20774       87.12392960        1.53316379
      115.30744       88.56273158        1.77491831
      115.40713       87.79376046        1.60061092
      115.50682       88.84837910        1.52020550
      115.60652       90.19522549        1.47626401
      115.70621       91.25339882        1.42714745
      115.80590       90.89427915        1.66158306
      115.90560       94.29813802        1.53412641
      116.00529       94.05358489        1.54921751
      116.10498       95.64733038        1.57870031
      116.20468       99.45554033        1.64700239
      116.30437      101.06077956        1.97922029
      116.40406       98.60063567        1.70255957
      116.50376      103.51266195        1.64878288
      116.60345      106.73774820        1.60735455
      116.70314      110.86595439        1.58867705
      116.80284      115.03371481        1.92308893
      116.90253      115.83903868        1.73600934
      117.00222      120.59811957        1.75759403
      117.10192      125.89380584        1.84422481
      117.20161      124.41735978        1.85560147
      117.30131      127.56533737        2.24861564
      117.40100      130.73777774        1.91398861
      117.50069      139.22103891        1.87643793
      117.60039      143.80999491        1.82540676
      117.70008      147.68946188        1.79234983
      117.79977      153.75051013        2.24142774
      117.89947      156.72681729        1.96751403
      117.99916      160.26247439        2.01355785
      118.09885      158.05641194        2.03698637
      118.19855      157.10735780        2.12702867
      118.29824      165.76645922        2.39590437
      118.39793      169.32255510        2.19877724
      118.49763      172.61446938        2.09515308
      118.59732      176.46953042        2.04556598
      118.69701      172.68536125        2.10770070
      118.79671      177.04117413        2.30470304
      118.89640      175.43157410        2.13888931
      118.99609      177.91349916        2.15184801
      119.09579      175.62202932        2.16269210
      119.19548      174.25734632        2.35377903
      119.29517      177.63587277        2.46928180
      119.39487      177.95157832        2.27196611
      119.49456      176.97728571        2.13508200
      119.59425      170.98173663        2.03765022
      119.69395      169.13413845        2.13795934
      119.79364      163.74965130        2.12560288
      119.89333      162.79985692        2.05115668
      119.99303      152.39602109        1.93690754
      120.09272      154.14048082        1.99247934
      120.19241      149.26597351        2.20351357
      120.29211      141.27034410        2.12123298
      120.39180      138.21515040        2.00153123
      120.49149      133.65678908        1.83027837
      120.59119      131.79603546        1.76396164
      120.69088      125.08333033        1.84948854
      120.79057      123.13539710        1.79551491
      120.89027      121.88550415        1.75373084
      120.98996      121.12318853        1.73475597
      121.08966      119.72731842        1.73755738
      121.18935      121.40373120        2.00570403
      121.28904      118.73751611        1.93309332
      121.38874      118.59224842        1.82688961
      121.48843      115.50248406        1.70270201
      121.58812      117.66835372        1.63922814
      121.68782      117.80850367        1.81707671
      121.78751      115.25672672        1.71249050
      121.88720      117.12294015        1.70433900
      121.98690      114.12100737        1.69478244
      122.08659      111.07498757        1.70531304
      122.18628      107.62614358        1.94707385
      122.28598      110.23710369        1.85325417
      122.38567      110.13646884        1.77410841
      122.48536      109.45184970        1.67292410
      122.58506      111.07253063        1.59621362
      122.68475      108.15947082        1.78473870
      122.78444      108.74472608        1.68510337
      122.88414      105.57350237        1.64607373
      122.98383      104.96727410        1.67493610
      123.08352      101.61187178        1.63366420
      123.18322      102.97729271        1.91822064
      123.28291      103.55426607        1.74828239
      123.38260      101.55988233        1.67128234
      123.48230      102.51415681        1.61840721
      123.58199      100.71390704        1.49924611
      123.68168       98.46213969        1.69142838
      123.78138       94.43261048        1.49425183
      123.88107       91.51363036        1.43681849
      123.98076       92.64831228        1.47250068
      124.08046       92.08745113        1.45254080
      124.18015       87.57897181        1.60307017
      124.27984       87.43401334        1.43504965
      124.37954       85.73308002        1.34084200
      124.47923       83.66809786        1.29304682
      124.57893       80.77058599        1.35340710
