        5.04651       53.85190235        2.50151390
        5.14621       55.99678998        2.45856750
        5.24590       56.51603457        2.43456489
        5.34559       57.14056012        2.24524964
        5.44529       54.18671293        2.37840717
        5.54498       50.80347149        1.93696857
        5.64467       50.92431290        1.92232902
        5.74437       49.24508756        1.70631176
        5.84406       52.22168787        1.77839130
        5.94375       47.51415736        1.69378708
        6.04345       49.67340257        1.68294099
        6.14314       47.86267316        1.51247875
        6.24283       48.82859442        1.57814695
        6.34253       49.16935360        1.51048808
        6.44222       50.70625751        1.61524294
        6.54191       48.99906919        1.50412392
        6.64161       47.39201935        1.40127337
        6.74130       48.80252410        1.42778780
        6.84099       49.62195334        1.42934215
        6.94069       47.94947349        1.42612118
        7.04038       49.53160240        1.33802926
        7.14007       47.17031931        1.30293068
        7.23977       47.01817887        1.27807763
        7.33946       46.56392198        1.29133713
        7.43915       48.19461923        1.29668594
        7.53885       46.24412819        1.24665456
        7.63854       48.99676891        1.22659307
        7.73823       47.91306598        1.25943249
        7.83793       49.28927350        1.23620690
        7.93762       47.72426469        1.26883420
        8.03732       49.36310442        1.15736382
        8.13701       46.05367498        1.11271851
        8.23670       48.54899482        1.15868877
        8.33640       47.91267358        1.15136067
        8.43609       47.40243653        1.19725191
        8.53578       46.98384124        1.11021909
        8.63548       48.32155227        1.11302466
        8.73517       45.99920213        1.06516437
        8.83486       45.63575082        1.06351800
        8.93456       46.19749249        1.06456882
        9.03425       46.88049625        1.04103125
        9.13394       46.79319455        1.04201640
        9.23364       45.55716969        1.04312887
        9.33333       46.35062997        1.07362607
        9.43302       46.71048613        1.07820042
        9.53272       45.98781536        1.03365627
        9.63241       47.07684992        1.07542541
        9.73210       45.94429822        1.06023875
        9.83180       47.68473077        1.12556071
        9.93149       46.67671987        1.10559004
       10.03118       48.06396361        1.07953396
       10.13088       46.78092398        1.03946048
       10.23057       45.42148318        1.07254268
       10.33026       48.91319655        1.15062007
       10.42996       47.09786349        1.11352543
       10.52965       46.22215232        1.06829147
       10.62934       46.90726406        1.07879118
       10.72904       48.45470742        1.11271750
       10.82873       46.76853629        1.08761198
       10.92842       47.66106754        1.11637962
       11.02812       48.37375643        1.07153658
       11.12781       50.20760442        1.13088948
       11.22750       47.84241372        1.11483635
       11.32720       50.39565879        1.17507979
       11.42689       50.91726500        1.14018669
       11.52658       53.11784717        1.15077503
       11.62628       53.97459185        1.17264047
       11.72597       55.96244342        1.21948556
       11.82567       59.88176580        1.29672412
       11.92536       60.25563351        1.21729755
       12.02505       67.01079824        1.29000375
       12.12475       73.43739697        1.34952272
       12.22444       80.64489419        1.49994247
       12.32413       93.32665850        1.63882592
       12.42383      102.07379369        1.62713755
       12.52352      120.84507749        1.76039442
       12.62321      139.30957874        1.94455403
       12.72291      158.62983116        2.01987969
       12.82260      188.70821816        2.39636479
       12.92229      208.81600311        2.29007847
       13.02199      236.04637585        2.41651050
       13.12168      260.49976091        2.58324071
       13.22137      289.80771876        2.81390512
       13.32107      316.52921925        3.03609726
       13.42076      344.50276243        3.04976753
       13.52045      356.33752738        3.13859157
       13.62015      362.51704353        3.06819132
       13.71984      347.66009880        3.13081850
       13.81953      315.93156373        3.03395357
       13.91923      280.13842909        2.68304408
       14.01892      224.83592141        2.33921363
       14.11861      168.89529289        2.11407074
       14.21831      132.75596340        1.87560546
       14.31800      105.21680237        1.75737475
       14.41769       84.04421014        1.51223063
       14.51739       73.22510104        1.37701755
       14.61708       59.23483578        1.24122857
       14.71677       53.86041589        1.20277864
       14.81647       53.37907618        1.25438810
       14.91616       49.08021698        1.10598251
       15.01585       48.27942771        1.11667328
       15.11555       48.55074280        1.13279754
       15.21524       48.44080388        1.16619470
       15.31493       47.29376332        1.18004473
       15.41463       46.29517964        1.13038484
       15.51432       46.95227105        1.10313184
       15.61402       46.09490527        1.12065736
       15.71371       48.65514373        1.14355367
       15.81340       44.48933319        1.13739665
       15.91310       46.72554547        1.13268241
       16.01279       45.88593892        1.07471230
       16.11248       44.69223260        1.08907749
       16.21218       48.38523522        1.16473533
       16.31187       46.00053519        1.13835145
       16.41156       47.76617334        1.13846356
       16.51126       47.01593145        1.14855498
       16.61095       48.81963450        1.12858457
       16.71064       49.11518593        1.16779698
       16.81034       51.63813075        1.20114551
       16.91003       50.59215993        1.15458793
       17.00972       53.70523864        1.14211553
       17.10942       59.06017025        1.26613306
       17.20911       59.82573972        1.28558529
       17.30880       66.72027158        1.36973897
       17.40850       68.28282851        1.38540505
       17.50819       74.86209244        1.40885357
       17.60788       72.57639034        1.43012167
       17.70758       73.99735543        1.45007511
       17.80727       72.55053639        1.45348236
       17.90696       72.68063793        1.36020379
       18.00666       66.28172574        1.32146681
       18.10635       63.80944195        1.26106502
       18.20604       61.44832943        1.35748586
       18.30574       58.10367676        1.25793263
       18.40543       55.70405731        1.20111201
       18.50512       55.36523176        1.23523279
       18.60482       51.88931016        1.17693048
       18.70451       53.28195704        1.26037510
       18.80420       50.76904967        1.15567298
       18.90390       50.38482621        1.13898598
       19.00359       47.30839764        1.07469952
       19.10328       48.54573032        1.15184309
       19.20298       49.34325469        1.19743405
       19.30267       46.02721755        1.11047906
       19.40237       45.54712007        1.09215143
       19.50206       45.35811731        1.11727735
       19.60175       46.42979205        1.11776618
       19.70145       43.76916895        1.13789685
       19.80114       44.61563253        1.08964516
       19.90083       46.62638753        1.07636070
       20.00053       46.64654821        1.09569682
       20.10022       45.22129523        1.08678578
       20.19991       48.33062322        1.20130747
       20.29961       49.41700153        1.15101096
       20.39930       50.56784354        1.19955852
       20.49899       48.91328871        1.15920714
       20.59869       48.94699802        1.18080982
       20.69838       53.44845267        1.27961770
       20.79807       52.06291439        1.20451703
       20.89777       54.40512401        1.20355655
       20.99746       55.79629621        1.23102651
       21.09715       57.95094583        1.32156284
       21.19685       57.15596941        1.30558955
       21.29654       58.71155320        1.29088098
       21.39623       56.78439639        1.26949852
       21.49593       55.00789085        1.23154677
       21.59562       54.37364972        1.25388282
       21.69531       48.86956713        1.23619294
       21.79501       47.78838314        1.11824805
       21.89470       46.21856419        1.07492266
       21.99439       45.70594970        1.11424571
       22.09409       47.96723028        1.14439612
       22.19378       46.26027940        1.19344604
       22.29347       44.04855171        1.08452831
       22.39317       45.08191766        1.12564008
       22.49286       47.31920923        1.15240223
       22.59255       47.45440669        1.16762242
       22.69225       48.16545986        1.23965724
       22.79194       49.47650692        1.12843026
       22.89163       53.66342512        1.15239945
       22.99133       56.24814671        1.21265419
       23.09102       62.20005286        1.32462704
       23.19072       62.18878601        1.32763068
       23.29041       66.47139257        1.35569760
       23.39010       69.12373152        1.39709405
       23.48980       64.55253897        1.35479225
       23.58949       64.71716289        1.37471764
       23.68918       60.92195966        1.40238847
       23.78888       57.12430088        1.21006498
       23.88857       49.53887748        1.14130433
       23.98826       49.78746663        1.16973209
       24.08796       48.27721344        1.12935139
       24.18765       45.29734339        1.17204384
       24.28734       44.03451733        1.10018674
       24.38704       44.17724367        1.12039163
       24.48673       44.39203257        1.11910404
       24.58642       43.65514326        1.14646747
       24.68612       45.25634305        1.16582693
       24.78581       45.08986621        1.07270993
       24.88550       44.38542842        1.06383716
       24.98520       43.75091645        1.09525043
       25.08489       45.54416329        1.13985565
       25.18458       47.58968345        1.18973329
       25.28428       45.60359543        1.12242842
       25.38397       48.75554248        1.15506018
       25.48366       50.34527458        1.18082799
       25.58336       54.94867821        1.28601956
       25.68305       60.33517001        1.32189878
       25.78274       68.44272128        1.32909993
       25.88244       86.60167164        1.53355109
       25.98213      104.57666508        1.69959386
       26.08182      127.99390723        1.93049300
       26.18152      152.17662083        2.15681062
       26.28121      175.59931947        2.19237719
       26.38090      192.01325739        2.31255167
       26.48060      196.82914842        2.40627446
       26.58029      182.57885359        2.41695385
       26.67998      168.77048406        2.19450796
       26.77968      148.95440893        2.03677427
       26.87937      111.60318553        1.73636977
       26.97907       92.07607425        1.56351967
       27.07876       82.25039778        1.59092188
       27.17845       75.68140606        1.45812417
       27.27815       80.38481406        1.46777052
       27.37784       81.93671086        1.53965476
       27.47753       81.65137496        1.51423368
       27.57723       82.87854864        1.59818199
       27.67692       85.45969131        1.58422640
       27.77661       79.23465936        1.45572145
       27.87631       68.05844248        1.32632340
       27.97600       61.21892671        1.28606317
       28.07569       56.77104558        1.31062982
       28.17539       51.58073565        1.19579083
       28.27508       48.72220176        1.16259526
       28.37477       52.51146358        1.23585255
       28.47447       47.24135803        1.16282650
       28.57416       52.68453919        1.32786145
       28.67385       49.54251942        1.14547524
       28.77355       54.26585318        1.17739268
       28.87324       55.63669700        1.22397532
       28.97293       56.34105145        1.23459974
       29.07263       58.06098479        1.36624451
       29.17232       58.32395557        1.24964979
       29.27201       52.61485911        1.20860408
       29.37171       55.22687878        1.27391519
       29.47140       52.42751740        1.22677122
       29.57109       51.96172305        1.29506293
       29.67079       50.62747985        1.16372550
       29.77048       45.05235034        1.10011314
       29.87017       48.43429677        1.11840228
       29.96987       43.18781827        1.10713852
       30.06956       47.03573227        1.19217576
       30.16925       45.03504901        1.09829668
       30.26895       48.38433579        1.14288863
       30.36864       47.24894717        1.14780972
       30.46833       49.83845557        1.19089550
       30.56803       54.34100723        1.31378093
       30.66772       55.23807286        1.23264878
       30.76742       56.31499684        1.21972420
       30.86711       62.51626875        1.31100802
       30.96680       63.87933534        1.33293826
       31.06650       61.40828106        1.37023782
       31.16619       63.10614736        1.30612476
       31.26588       61.25198102        1.27898824
       31.36558       58.31251990        1.26413912
       31.46527       56.56045220        1.29536220
       31.56496       60.13774254        1.35731524
       31.66466       62.71818816        1.29639609
       31.76435       73.74915096        1.40483089
       31.86404       77.87227595        1.42471524
       31.96374       85.14626788        1.52463731
       32.06343       88.77483931        1.61120629
       32.16312       88.30491944        1.51016175
       32.26282       82.85641605        1.49834833
       32.36251       78.58062942        1.51741583
       32.46220       74.53128516        1.50417370
       32.56190       67.94130009        1.46132598
       32.66159       66.27262595        1.37054276
       32.76128       63.79202515        1.31437640
       32.86098       63.74405852        1.33361521
       32.96067       62.83195788        1.34058658
       33.06036       62.43457815        1.36070682
       33.16006       57.46471043        1.22918122
       33.25975       56.24198982        1.25548535
       33.35944       56.29575474        1.26289499
       33.45914       58.16673282        1.33262516
       33.55883       59.38042942        1.34966391
       33.65852       60.79000581        1.27344565
       33.75822       66.53759772        1.33019525
       33.85791       72.16462640        1.39111677
       33.95760       79.73864607        1.50573140
       34.05730       94.05357733        1.62001763
       34.15699      104.44566781        1.68032930
       34.25668      121.31137688        1.80517448
       34.35638      148.73064068        2.05144618
       34.45607      186.61255598        2.42149688
       34.55577      228.23608267        2.55291719
       34.65546      290.18138091        2.76222899
       34.75515      364.19756665        3.15558430
       34.85485      419.06171327        3.36035261
       34.95454      444.57255020        3.57082013
       35.05423      435.96639705        3.65721907
       35.15393      390.28698211        3.24823756
       35.25362      316.10731103        2.96674297
       35.35331      247.67973056        2.69301492
       35.45301      188.37579414        2.44927963
       35.55270      143.99124354        2.08398606
       35.65239      109.24481398        1.75218945
       35.75209       88.39001687        1.56393395
       35.85178       79.88614936        1.48454826
       35.95147       73.48183512        1.45707913
       36.05117       67.59395541        1.36849108
       36.15086       64.94697322        1.28974433
       36.25055       61.48090481        1.31089706
       36.35025       61.07746304        1.33217552
       36.44994       57.24468636        1.31531328
       36.54963       56.04140066        1.24925722
       36.64933       56.74185586        1.23831564
       36.74902       54.02477277        1.22081421
       36.84871       55.36045585        1.22695621
       36.94841       51.59038178        1.28073254
       37.04810       51.77165442        1.13127292
       37.14779       50.02106931        1.13471431
       37.24749       49.42674091        1.15930543
       37.34718       47.27416189        1.16261380
       37.44687       47.16170708        1.24738608
       37.54657       49.96810271        1.17229019
       37.64626       45.80263990        1.11789690
       37.74595       48.15956289        1.12846949
       37.84565       44.88950510        1.15263987
       37.94534       46.58692442        1.19631461
       38.04503       48.25898941        1.10055785
       38.14473       46.09808245        1.08609392
       38.24442       50.17525058        1.15398140
       38.34412       47.76752986        1.17706870
       38.44381       49.10762045        1.29054559
       38.54350       48.80880944        1.14688992
       38.64320       51.14863347        1.17059622
       38.74289       51.76241855        1.19302627
       38.84258       50.78490255        1.18452421
       38.94228       55.71671083        1.30156375
       39.04197       59.23880067        1.21029966
       39.14166       64.48654458        1.31382463
       39.24136       66.92102513        1.33487723
       39.34105       72.23214380        1.43544761
       39.44074       70.02500226        1.54150245
       39.54044       71.57322777        1.39353845
       39.64013       70.13994370        1.37524014
       39.73982       65.85577069        1.33778975
       39.83952       62.94421635        1.29892786
       39.93921       59.35644025        1.33729411
       40.03890       60.51980853        1.23610535
       40.13860       57.16869480        1.19970375
       40.23829       55.87660048        1.22797403
       40.33798       55.32631539        1.25997838
       40.43768       56.94883550        1.33754751
       40.53737       55.94384505        1.23037017
       40.63706       58.05657405        1.27979886
       40.73676       57.03485725        1.26642714
       40.83645       61.44824252        1.32569153
       40.93614       61.63648402        1.34997036
       41.03584       65.57793597        1.31056798
       41.13553       77.62156357        1.42793894
       41.23522       88.88490421        1.56547249
       41.33492      116.54868318        1.87776925
       41.43461      136.56260435        2.09838771
       41.53430      160.99602860        2.13451258
       41.63400      188.37633060        2.36039632
       41.73369      207.80231090        2.42575862
       41.83338      210.51571514        2.50663039
       41.93308      215.85766593        2.51601492
       42.03277      221.99293738        2.33238076
       42.13247      244.21551081        2.57204598
       42.23216      295.38382366        2.83598313
       42.33185      349.83102942        3.31413303
       42.43155      416.48592460        3.56479504
       42.53124      483.73176984        3.72176109
       42.63093      525.91373897        3.88837275
       42.73063      543.66253131        3.97146812
       42.83032      529.23891630        3.98735082
       42.93001      494.45848991        3.70875955
       43.02971      424.00265808        3.24286745
       43.12940      337.12085142        2.94813849
       43.22909      267.00079447        2.75656105
       43.32879      201.81857719        2.52279842
       43.42848      151.66954139        2.13750058
       43.52817      112.32626082        1.75885373
       43.62787       89.61156506        1.56518327
       43.72756       72.95731671        1.44516234
       43.82725       66.29085681        1.43824336
       43.92695       63.32471158        1.27464649
       44.02664       58.18974089        1.21584741
       44.12633       56.78993069        1.24585982
       44.22603       54.70925837        1.27270230
       44.32572       53.61180293        1.32780647
       44.42541       53.21983315        1.26306586
       44.52511       55.12825999        1.25102005
       44.62480       56.09288363        1.27979958
       44.72449       56.32243494        1.24276885
       44.82419       63.97868335        1.48665990
       44.92388       64.49384544        1.24484043
       45.02357       75.44739754        1.35783181
       45.12327       87.96911217        1.51059408
       45.22296      107.90408929        1.71780782
       45.32265      128.18080372        2.07179166
       45.42235      149.89875895        2.04061371
       45.52204      177.31984889        2.19801506
       45.62174      204.61844852        2.40502899
       45.72143      226.80715654        2.53283137
       45.82112      233.80801175        2.81520808
       45.92082      235.01594484        2.39613260
       46.02051      239.66060512        2.47185916
       46.12020      228.89038873        2.42300849
       46.21990      210.57831199        2.44126978
       46.31959      198.32702194        2.55816443
       46.41928      179.05206125        2.24442611
       46.51898      152.46708183        2.08167650
       46.61867      125.78311587        1.88028080
       46.71836       99.64964031        1.71557912
       46.81806       84.21504820        1.63480402
       46.91775       70.99573262        1.30794789
       47.01744       64.24225437        1.27361707
       47.11714       63.12105021        1.29123476
       47.21683       66.94866145        1.36908757
       47.31652       76.91080318        1.60130432
       47.41622       86.72630722        1.60275757
       47.51591       98.34459140        1.71017672
       47.61560      119.94624515        1.87373238
       47.71530      134.64793346        2.00705030
       47.81499      145.06312363        2.13579181
       47.91468      160.87770473        1.96814688
       48.01438      173.54108281        2.04555214
       48.11407      178.57748914        2.15284364
       48.21376      177.15237351        2.23863438
       48.31346      169.61161576        2.26812794
       48.41315      157.42436095        2.03632038
       48.51284      143.98494208        2.01190198
       48.61254      122.39448465        1.84660555
       48.71223      107.31553505        1.76010503
       48.81192       91.81440547        1.62367956
       48.91162       75.33502559        1.31794626
       49.01131       65.38468278        1.27058295
       49.11100       59.46999425        1.25522305
       49.21070       52.95476720        1.24329695
       49.31039       52.27314486        1.27129812
       49.41009       49.44472437        1.16792390
       49.50978       46.67737441        1.15813847
       49.60947       49.10130785        1.19662614
       49.70917       50.39532413        1.25730063
       49.80886       50.41548413        1.22391053
       49.90855       49.91270233        1.10931098
       50.00825       50.44270059        1.13876088
       50.10794       50.17078937        1.16152278
       50.20763       51.38961174        1.22822715
       50.30733       53.22475799        1.30940810
       50.40702       53.95154160        1.23630570
       50.50671       53.96622813        1.24010573
       50.60641       56.18176916        1.26719670
       50.70610       56.93809481        1.31268087
       50.80579       56.86536022        1.29452741
       50.90549       58.15628157        1.18035308
       51.00518       59.19150412        1.20141375
       51.10487       57.33702294        1.22220236
       51.20457       54.35565996        1.26673148
       51.30426       56.41854345        1.28392502
       51.40395       57.80696315        1.24597684
       51.50365       57.38455494        1.25557587
       51.60334       58.57038725        1.29358803
       51.70303       58.78944941        1.37629515
       51.80273       59.74832008        1.27273117
       51.90242       59.29313268        1.18456790
       52.00211       60.53544567        1.20262593
       52.10181       63.23448385        1.26816699
       52.20150       63.30056705        1.39733067
       52.30119       60.99614900        1.32121183
       52.40089       60.20777082        1.29205558
       52.50058       61.76405456        1.33344360
       52.60027       58.33199137        1.31340697
       52.69997       62.71218696        1.49267046
       52.79966       60.72480868        1.23480323
       52.89935       66.40098113        1.24612685
       52.99905       72.78368065        1.32619808
       53.09874       84.28938299        1.47363053
       53.19844       99.28684579        1.83219208
       53.29813      107.69126055        1.69594503
       53.39782      122.30138499        1.87024038
       53.49752      133.74958864        1.96512527
       53.59721      144.44994911        2.04111920
       53.69690      145.58341281        2.24826849
       53.79660      151.33982259        1.92049472
       53.89629      149.39374719        1.88740154
       53.99598      147.00617583        1.91797965
       54.09568      134.37964222        1.91432791
       54.19537      126.43386217        2.02484052
       54.29506      115.24960403        1.77556925
       54.39476      103.04445317        1.69142017
       54.49445       95.24037682        1.62697118
       54.59414       90.40893610        1.60912637
       54.69384       92.69646784        1.73839174
       54.79353       85.14993657        1.42841266
       54.89322       80.59526064        1.38448657
       54.99292       79.07475853        1.41147977
       55.09261       72.97542875        1.40984816
       55.19230       71.34380783        1.49695566
       55.29200       67.43908855        1.35447009
       55.39169       64.21902573        1.36368343
       55.49138       58.18750287        1.29299926
       55.59108       55.44348505        1.30250857
       55.69077       57.86351729        1.36570655
       55.79046       56.81668091        1.18311769
       55.89016       55.39169194        1.16533742
       55.98985       56.83376980        1.18803621
       56.08954       58.47772511        1.24487677
       56.18924       67.10717996        1.43961033
       56.28893       72.07645723        1.36565360
       56.38862       81.11556618        1.49892295
       56.48832       95.12602033        1.65175596
       56.58801      108.23802920        1.81348073
       56.68770      112.04620637        1.90442587
       56.78740      114.90578029        1.65063078
       56.88709      115.05083903        1.66817095
       56.98679      103.26236640        1.58125194
       57.08648       96.83894389        1.62305501
       57.18617       87.25109649        1.59484570
       57.28587       77.04362410        1.39987844
       57.38556       67.43033121        1.39377197
       57.48525       62.50936198        1.36757948
       57.58495       56.75731594        1.33278403
       57.68464       53.97822256        1.31097720
       57.78433       53.05157683        1.13692813
       57.88403       52.19161544        1.14078800
       57.98372       50.95875706        1.14513375
       58.08341       52.94076603        1.26209250
       58.18311       53.90173588        1.30274664
       58.28280       52.85439154        1.21501824
       58.38249       50.63459079        1.24253639
       58.48219       54.26075133        1.31420156
       58.58188       53.14059547        1.31473728
       58.68157       53.06475364        1.28740757
       58.78127       52.03642402        1.11509381
       58.88096       54.50763531        1.12452343
       58.98065       54.60278449        1.16836392
       59.08035       56.74520034        1.27102126
       59.18004       57.82769134        1.30161732
       59.27973       59.82577152        1.24917408
       59.37943       60.90158528        1.30193661
       59.47912       64.90581812        1.39932032
       59.57881       71.16727659        1.53528625
       59.67851       79.75424347        1.51565439
       59.77820       83.87074103        1.42894108
       59.87789       90.06177802        1.47568083
       59.97759      100.50813385        1.63121432
       60.07728      102.15999016        1.78092707
       60.17697      107.55654861        1.74107454
       60.27667      106.02707141        1.68055210
       60.37636      106.12978937        1.71398659
       60.47605      103.69410842        1.76732993
       60.57575      100.49373753        1.90663007
       60.67544       94.17627960        1.58545199
       60.77514       86.65327111        1.44552148
       60.87483       76.97289738        1.33559856
       60.97452       73.36833550        1.37360069
       61.07422       68.05560946        1.48591732
       61.17391       66.42625537        1.27158698
       61.27360       64.43566893        1.29677121
       61.37330       64.56712957        1.34624199
       61.47299       67.71897908        1.43946029
       61.57268       70.74295362        1.67324924
       61.67238       70.19228962        1.35839080
       61.77207       72.24137303        1.34224102
       61.87176       71.42722970        1.31974814
       61.97146       72.28766997        1.37845062
       62.07115       69.42018026        1.52975596
       62.17084       66.60430709        1.31266208
       62.27054       67.83470285        1.38133795
       62.37023       67.52200722        1.43303691
       62.46992       64.69820489        1.45068525
       62.56962       70.98982048        1.70709957
       62.66931       70.11568743        1.36668978
       62.76900       76.54555233        1.39211877
       62.86870       82.81049259        1.41662980
       62.96839       91.87381850        1.54014708
       63.06808       98.56817294        1.77561834
       63.16778      107.22950259        1.64437131
       63.26747      114.29908155        1.75716160
       63.36716      117.70503064        1.85061571
       63.46686      123.17429491        1.95016798
       63.56655      122.61631485        2.06695637
       63.66624      135.73079603        1.84908744
       63.76594      145.14503693        1.85779852
       63.86563      162.21934089        1.95889996
       63.96532      173.42953674        2.12008691
       64.06502      174.43218890        2.27781887
       64.16471      170.63218518        2.08362017
       64.26440      165.10910679        2.13349774
       64.36410      150.53024089        2.07754866
       64.46379      134.23766509        2.07401357
       64.56349      120.19239531        1.99676688
       64.66318      106.72899241        1.64640493
       64.76287       83.65212982        1.43867437
       64.86257       75.65178470        1.36583818
       64.96226       64.12542944        1.31672918
       65.06195       58.08641621        1.35485125
       65.16165       56.56215005        1.20599552
       65.26134       54.04418348        1.20634234
       65.36103       53.99896749        1.25826481
       65.46073       53.19172657        1.28981872
       65.56042       53.36315408        1.34931384
       65.66011       55.96793261        1.20502815
       65.75981       56.91946983        1.20311110
       65.85950       60.24724171        1.23002074
       65.95919       59.85027353        1.28329514
       66.05889       66.51932963        1.39968484
       66.15858       69.43582838        1.35994904
       66.25827       77.32660377        1.48451120
       66.35797       87.93662128        1.64958347
       66.45766       97.73734826        1.84819441
       66.55735      108.11133943        1.94366620
       66.65705      123.88162761        1.84623170
       66.75674      139.22428000        1.90786332
       66.85643      152.47270961        1.97441565
       66.95613      163.53732953        2.12661858
       67.05582      166.10673138        2.15939516
       67.15551      168.60340029        2.07047830
       67.25521      160.52538015        2.12010103
       67.35490      149.97530006        2.15689324
       67.45459      139.49391811        2.19349375
       67.55429      119.86727829        1.94729968
       67.65398      103.83491358        1.62407314
       67.75367       90.46356576        1.50309468
       67.85337       78.85607572        1.42020492
       67.95306       73.50534745        1.46599638
       68.05275       76.04798615        1.41206996
       68.15245       80.09235839        1.43679416
       68.25214       86.50104853        1.58505675
       68.35184       92.32803560        1.70682808
       68.45153      101.69125019        1.97241936
       68.55122      109.71137648        1.76523153
       68.65092      116.30861022        1.69428943
       68.75061      127.62601857        1.79367882
       68.85030      127.15530981        1.82474242
       68.95000      129.36809680        2.08692332
       69.04969      126.59705804        1.74338128
       69.14938      114.87187628        1.70715148
       69.24908      103.51294940        1.73019700
       69.34877       92.66577927        1.69271978
       69.44846       86.32788216        1.89487777
       69.54816       75.01367860        1.37677392
       69.64785       66.65948378        1.27931965
       69.74754       58.83434707        1.21371088
       69.84724       52.79156158        1.17945983
       69.94693       54.10702095        1.34765688
       70.04662       49.05112750        1.05500758
       70.14632       48.98959123        1.09637463
       70.24601       48.19708766        1.16435771
       70.34570       51.28564107        1.27111750
       70.44540       47.68232515        1.44392209
       70.54509       48.08831840        1.13502454
       70.64478       48.44561038        1.13762743
       70.74448       51.76312224        1.19471282
       70.84417       48.86809389        1.20444405
       70.94386       51.63495917        1.35918831
       71.04356       49.35183686        1.09948929
       71.14325       53.01196787        1.18432755
       71.24294       52.08606979        1.23513314
       71.34264       52.74466004        1.31795026
       71.44233       55.99325213        1.51547762
       71.54202       53.05647103        1.20087291
       71.64172       52.03199442        1.15677077
       71.74141       52.97114061        1.14602171
       71.84110       52.29357754        1.17867310
       71.94080       53.22457818        1.29581113
       72.04049       52.02497503        1.08429999
       72.14019       51.79586729        1.12723752
       72.23988       52.26404691        1.18477919
       72.33957       52.07967774        1.32106090
       72.43927       51.99684658        1.45306239
       72.53896       49.96801600        1.14200531
       72.63865       52.50429921        1.14433962
       72.73835       53.53917486        1.13018889
       72.83804       56.73929853        1.22872566
       72.93773       59.27243824        1.33411234
       73.03743       59.72862399        1.16248936
       73.13712       63.52929656        1.26450482
       73.23681       61.19376300        1.30372107
       73.33651       62.99611364        1.45561782
       73.43620       63.33324064        1.58087253
       73.53589       63.52544271        1.27721534
       73.63559       66.32405794        1.28467945
       73.73528       67.67423827        1.29185513
       73.83497       67.58991963        1.36872165
       73.93467       66.78787254        1.43265054
       74.03436       64.85594179        1.24933406
       74.13405       63.19019130        1.28553997
       74.23375       63.31076651        1.34035713
       74.33344       62.57113706        1.46686661
       74.43313       60.72174306        1.49935024
       74.53283       62.88534310        1.29650211
       74.63252       67.45571023        1.33327072
       74.73221       69.58325599        1.34760585
       74.83191       72.20430726        1.45632801
       74.93160       77.44108993        1.52546641
       75.03129       79.44231155        1.37365520
       75.13099       82.36935838        1.44889936
       75.23068       89.46040116        1.57532725
       75.33037       95.38495010        1.78829737
       75.43007      103.98352058        1.89455549
       75.52976      106.21469601        1.66313360
       75.62945      118.25754718        1.75392416
       75.72915      127.78032007        1.81639440
       75.82884      132.97651975        1.99524098
       75.92854      133.58606033        1.87725753
       76.02823      146.03264900        1.84151354
       76.12792      152.05231969        1.96437066
       76.22762      151.35920565        2.06770968
       76.32731      147.54410126        2.30530588
       76.42700      150.10271702        2.19477903
       76.52670      150.37220646        2.02665124
       76.62639      141.47285902        1.94038511
       76.72608      131.10268943        1.83635196
       76.82578      127.62845889        2.08757592
       76.92547      123.82353819        1.64680302
       77.02516      119.65719061        1.67763841
       77.12486      121.40525121        1.77525076
       77.22455      124.10805649        1.91130958
       77.32424      130.73146061        2.41043774
       77.42394      131.34054740        1.92914179
       77.52363      134.90038879        1.88947803
       77.62332      135.82401762        1.88726664
       77.72302      144.44633476        1.95117555
       77.82271      147.04081717        2.30885962
       77.92240      146.85305031        1.76682849
       78.02210      147.06039421        1.90783604
       78.12179      143.44052774        2.01220435
       78.22148      141.34505833        2.11213661
       78.32118      132.47826258        2.37204657
       78.42087      129.14157824        1.84304590
       78.52056      118.89327067        1.82562405
       78.62026      114.39260298        1.77650253
       78.71995      103.34431666        1.69363752
       78.81964       99.41595487        1.85530413
       78.91934       92.81400262        1.38880290
       79.01903       87.31347621        1.47660070
       79.11872       76.52329263        1.43814126
       79.21842       69.85981991        1.46554144
       79.31811       70.86765441        1.66275651
       79.41780       65.64898836        1.29798870
       79.51750       67.47116899        1.33716323
       79.61719       64.93247014        1.31550831
       79.71689       62.21121703        1.33675460
       79.81658       61.69452357        1.41109842
       79.91627       64.37783012        1.22196928
       80.01597       63.68238914        1.24917351
       80.11566       64.66777098        1.31594954
       80.21535       65.19896337        1.41247964
       80.31505       64.99868678        1.67650598
       80.41474       64.92171048        1.28748664
       80.51443       67.61847709        1.30832274
       80.61413       72.39271858        1.39884325
       80.71382       78.49520513        1.50711295
       80.81351       83.58570295        1.74783409
       80.91321       91.15351488        1.34626289
       81.01290      106.55878758        1.57198930
       81.11259      122.72716824        1.82157599
       81.21229      142.93221004        2.12731874
       81.31198      153.09818905        2.45629413
       81.41167      173.71276938        2.04945777
       81.51137      198.41840293        2.25447583
       81.61106      214.69184776        2.44937544
       81.71075      229.56324162        2.62209054
       81.81045      234.58861641        2.80806500
       81.91014      256.41589608        2.25847945
       82.00983      276.32822139        2.50703897
       82.10953      282.64333963        2.83656716
       82.20922      290.61812292        3.19935731
       82.30891      292.55657176        3.36589504
       82.40861      292.44333303        2.73652325
       82.50830      292.54596067        2.72993750
       82.60799      287.70699693        2.91581474
       82.70769      288.90538252        3.17993407
       82.80738      285.57914394        3.02044275
       82.90707      281.49271150        2.43488402
       83.00677      271.30311246        2.54645092
       83.10646      264.23463468        2.95677232
       83.20615      249.46034356        3.19677691
       83.30585      241.50408540        2.97955870
       83.40554      221.97858606        2.37401534
       83.50524      204.78915229        2.22437808
       83.60493      187.17092149        2.34202758
       83.70462      172.82345834        2.53706878
       83.80432      158.35331673        2.12178341
       83.90401      132.79479021        1.62895932
       84.00370      113.19059302        1.56794381
       84.10340       94.46904733        1.71090088
       84.20309       91.20392228        2.04085381
       84.30278       81.53849435        1.56895261
       84.40248       74.26881118        1.32127547
       84.50217       67.44329655        1.23496464
       84.60186       68.77088974        1.41019229
       84.70156       64.46802477        1.78642906
       84.80125       63.29108039        1.23228735
       84.90094       67.29305179        1.14160842
       85.00064       62.89447820        1.13693099
       85.10033       63.12003765        1.34795096
       85.20002       64.14022036        2.33056391
       85.29972       65.94301622        1.24662366
       85.39941       67.87171722        1.28953103
       85.49910       66.79187654        1.24397219
       85.59880       65.82675665        1.38861201
       85.69849       65.07141733        2.47862925
       85.79818       66.77638409        1.18386688
       85.89788       65.04951782        1.14047148
       85.99757       62.38871802        1.14751298
       86.09726       66.44620049        1.35987651
       86.19696       61.49497534        2.51221695
       86.29665       63.17273795        1.20503152
       86.39634       63.59964894        1.23009871
       86.49604       61.72494398        1.19342792
       86.59573       57.72838194        1.22955322
       86.69542       53.06104671        2.46422898
       86.79512       54.08914375        1.03282390
       86.89481       53.24047015        1.01021940
       86.99451       55.41060388        1.06834558
       87.09420       54.05220876        1.17674397
       87.19389       51.33574857        2.71624110
       87.29359       51.64949272        1.10419042
       87.39328       52.57591565        1.12913756
       87.49297       49.88422106        1.06760615
       87.59267       50.56707177        1.09605161
       87.69236       56.54721205        3.46895267
       87.79205       48.88426265        1.00446561
       87.89175       48.45392270        0.99196838
       87.99144       48.28005756        1.03178234
       88.09113       50.75472921        1.12451316
       88.19083       57.72179427        6.34746877
       88.29052       49.79019986        1.12075721
       88.39021       48.80997752        1.11702813
       88.48991       49.39040741        1.07840832
       88.58960       47.43090426        1.02334832
       88.68929       52.43320358        8.33657154
       88.78899       50.19181073        1.01621218
       88.88868       49.18529281        0.98396560
       88.98837       48.08676847        1.01188282
       89.08807       49.28915267        1.04936790
       89.18776       45.98327741        8.24597665
       89.28745       48.83755377        1.06125655
       89.38715       52.83932885        1.11537630
       89.48684       53.41025049        1.09741358
       89.58653       54.14514603        1.08251619
       89.68623       54.37277644        8.79424033
       89.78592       59.78401241        1.10549075
       89.88561       63.00684558        1.11274104
       89.98531       64.41377923        1.15371769
       90.08500       66.70302158        1.21772915
       90.18469       59.89575898        9.62150878
       90.28439       74.73410866        1.31676595
       90.38408       80.51282012        1.38991996
       90.48377       84.41505210        1.39663736
       90.58347       90.53307630        1.42389784
       90.68316       92.97707136       11.24110397
       90.78286       92.48007258        1.37765597
       90.88255       97.58089333        1.37721896
       90.98224       98.90103725        1.43458153
       91.08194       99.22479290        1.48408700
       91.18163       95.86795960       11.63915709
       91.28132       99.54362679        1.53048141
       91.38102       98.97121777        1.56654313
       91.48071       95.36202432        1.49979243
       91.58040       91.69409660        1.42213985
       91.68010       85.62292698       10.39446329
       91.77979       87.38873774        1.33256987
       91.87948       83.34705883        1.28111549
       91.97918       79.87851627        1.30218822
       92.07887       78.08390030        1.34106088
       92.17856       94.21293235       11.20667249
       92.27826       78.36400167        1.38753997
       92.37795       75.63137435        1.39533563
       92.47764       76.89603728        1.33568086
       92.57734       77.95771187        1.30471075
       92.67703       66.54272299        7.82148511
       92.77672       79.75933866        1.27200403
       92.87642       82.49402274        1.26904471
       92.97611       84.18676808        1.33874107
       93.07580       88.42334592        1.56613470
       93.17550       88.58477855        2.94765462
       93.27519       89.55104223        1.45277456
       93.37488       92.63628933        1.43647607
       93.47458       97.65818664        1.49137761
       93.57427      100.39506591        1.74838007
       93.67396       96.88557676        2.32083554
       93.77366      101.29810734        1.47031951
       93.87335       97.64627352        1.37871810
       93.97304       93.19372706        1.40344224
       94.07274       91.18724089        1.80223730
       94.17243       86.63177056        2.00404383
       94.27212       87.26692744        1.49813937
       94.37182       91.08183266        1.49185765
       94.47151       91.66206827        1.43329092
       94.57121       85.55516737        1.82711494
       94.67090       83.19266351        1.82242636
       94.77059       84.07193563        1.42421426
       94.87029       76.46503519        1.23478506
       94.96998       73.93913435        1.22949722
       95.06967       68.09308548        1.35988501
       95.16937       67.54551558        1.85401744
       95.26906       67.23400483        1.42895545
       95.36875       64.38736937        1.26875989
       95.46845       59.21390305        1.16911066
       95.56814       59.49683368        1.34851236
       95.66783       58.07326984        1.49668340
       95.76753       58.20513888        1.23821633
       95.86722       55.46124979        1.02802440
       95.96691       54.10144514        1.05311710
       96.06661       52.43328099        1.32802546
       96.16630       52.51248422        1.41727692
       96.26599       51.62967740        1.26202349
       96.36569       50.35023943        1.11821824
       96.46538       48.31541516        1.05707209
       96.56507       47.44693258        1.29288400
       96.66477       49.32743503        1.28463136
       96.76446       47.30628224        1.12412555
       96.86415       47.58208358        0.97655483
       96.96385       49.79102037        1.03185542
       97.06354       47.06259058        1.35638177
       97.16323       50.60699475        1.34503418
       97.26293       52.33661307        1.28515043
       97.36262       51.09453711        1.17583205
       97.46231       47.45792405        1.04240449
       97.56201       47.29364942        1.32388656
       97.66170       51.37881003        1.23956902
       97.76139       52.99179196        1.14373900
       97.86109       54.15700061        1.04557650
       97.96078       56.40569142        1.09045836
       98.06047       57.25636330        1.52605039
       98.16017       56.08621467        1.34261285
       98.25986       56.47335641        1.28687005
       98.35956       56.00045641        1.20980326
       98.45925       59.62836623        1.16537832
       98.55894       64.38027751        1.57986209
       98.65864       63.36257727        1.34473629
       98.75833       68.44093458        1.30608910
       98.85802       67.50498482        1.21110900
       98.95772       71.57896726        1.23897235
       99.05741       72.43189350        1.73026607
       99.15710       72.98061155        1.49367797
       99.25680       75.04409701        1.46750948
       99.35649       79.45732993        1.43842340
       99.45618       80.02372422        1.34527524
       99.55588       84.19436332        1.84405099
       99.65557       83.06604471        1.51103134
       99.75526       88.70889533        1.46384453
       99.85496       86.45692534        1.37534707
       99.95465       86.88817782        1.35174169
      100.05434       85.68647224        1.91221944
      100.15404       88.36055755        1.63574298
      100.25373       85.61376530        1.59068137
      100.35342       85.31088890        1.58164227
      100.45312       85.32015649        1.44332964
      100.55281       85.10437466        1.89326931
      100.65250       84.35588507        1.53553396
      100.75220       82.76561686        1.40878892
      100.85189       78.80714109        1.31333361
      100.95158       81.36203010        1.29891550
      101.05128       79.73454013        1.83314439
      101.15097       78.73617852        1.50548542
      101.25066       77.71402260        1.47769736
      101.35036       77.93764323        1.49266206
      101.45005       76.37159390        1.38939508
      101.54974       75.84762943        1.72455995
      101.64944       73.04156254        1.38061720
      101.74913       73.90540180        1.30854910
      101.84882       74.68827488        1.28053184
      101.94852       75.05947426        1.35223413
      102.04821       78.42896323        1.66507769
      102.14791       80.39901233        1.51945245
      102.24760       80.18481403        1.50460118
      102.34729       78.98561984        1.48715083
      102.44699       84.19494231        1.56239004
      102.54668       81.12990453        1.60915577
      102.64637       85.23037523        1.47325694
      102.74607       83.59632353        1.38948778
      102.84576       87.64334937        1.39590698
      102.94545       88.48108653        1.59749581
      103.04515       86.10250240        1.66812527
      103.14484       85.07405591        1.54914657
      103.24453       87.34653180        1.54560671
      103.34423       85.45801067        1.51633043
      103.44392       84.23071294        1.63062582
      103.54361       83.93763474        1.58129238
      103.64331       88.05407417        1.47448326
      103.74300       85.81113851        1.38832073
      103.84269       84.76105364        1.35586484
      103.94239       83.99195203        1.62191651
      104.04208       85.31857331        1.58151924
      104.14177       86.31317327        1.54767366
      104.24147       81.46411924        1.50255033
      104.34116       81.54305036        1.51261524
      104.44085       80.30182281        1.70476395
      104.54055       81.83268963        1.55820407
      104.64024       77.67555906        1.42680592
      104.73993       76.63217327        1.35232416
      104.83963       72.24029610        1.26479735
      104.93932       70.41617107        1.51372800
      105.03901       69.26076240        1.41449931
      105.13871       68.11243523        1.35059870
      105.23840       71.32543139        1.38144942
      105.33809       69.73145545        1.37391207
      105.43779       70.07613142        1.60256790
      105.53748       70.60221691        1.44257868
      105.63717       65.05861548        1.26907138
      105.73687       63.68029257        1.19483508
      105.83656       60.35278786        1.13331482
      105.93626       60.72076992        1.44058264
      106.03595       60.70131167        1.30542893
      106.13564       58.24028104        1.23576995
      106.23534       57.83373885        1.24659573
      106.33503       55.81672731        1.23694876
      106.43472       54.96559022        1.45112001
      106.53442       55.13656689        1.26416030
      106.63411       52.19388653        1.11718406
      106.73380       54.18411877        1.08496876
      106.83350       56.79004046        1.09426986
      106.93319       56.00068808        1.40858935
      107.03288       56.69309790        1.25613685
      107.13258       56.06343846        1.21243836
      107.23227       56.52409848        1.23509776
      107.33196       60.27023413        1.27203657
      107.43166       57.36454546        1.49095609
      107.53135       58.15348560        1.29524682
      107.63104       56.73434272        1.16486410
      107.73074       60.11016273        1.15048901
      107.83043       61.85071399        1.15234568
      107.93012       65.82827226        1.57287388
      108.02982       61.92706151        1.33507286
      108.12951       63.51078886        1.28580321
      108.22920       62.42691667        1.25429580
      108.32890       65.68776999        1.27451735
      108.42859       64.21411406        1.59923012
      108.52828       63.38680136        1.34773808
      108.62798       65.83187864        1.24552390
      108.72767       67.97659533        1.21490573
      108.82736       67.52100459        1.23748703
      108.92706       64.22837152        1.52839996
      109.02675       65.63351877        1.35170753
      109.12644       65.03931471        1.31327200
      109.22614       65.85159180        1.32252499
      109.32583       65.03787942        1.43216836
      109.42552       64.39157173        1.50311059
      109.52522       64.62942555        1.35861484
      109.62491       66.58571211        1.31177462
      109.72461       61.59612891        1.20601535
      109.82430       62.27752113        1.13281853
      109.92399       61.96858283        1.46920100
      110.02369       59.42431124        1.25978853
      110.12338       61.17575168        1.26996861
      110.22307       60.23079161        1.25064983
      110.32277       59.83776731        1.27292522
      110.42246       58.86239106        1.53501285
      110.52215       57.19610868        1.28149203
      110.62185       56.45102307        1.19982821
      110.72154       55.88071809        1.11369115
      110.82123       56.05217124        1.15194829
      110.92093       54.88153016        1.32938884
      111.02062       55.86423623        1.23915122
      111.12031       55.27355413        1.24176010
      111.22001       57.92563263        1.24750429
      111.31970       56.83191433        1.34099264
      111.41939       58.47902156        1.40766258
      111.51909       57.56352127        1.26720366
      111.61878       59.30473295        1.21172197
      111.71847       62.29629704        1.15557497
      111.81817       63.92090163        1.27052518
      111.91786       66.74661364        1.36644002
      112.01755       66.24899192        1.32924452
      112.11725       67.25978270        1.34953870
      112.21694       71.54680009        1.38584127
      112.31663       72.65145492        1.53893207
      112.41633       76.75494204        1.55416303
      112.51602       76.58224392        1.42957213
      112.61571       80.17217397        1.39547509
      112.71541       84.32103891        1.34887376
      112.81510       85.50501355        1.52309965
      112.91479       88.25842718        1.57644460
      113.01449       88.27392574        1.54387167
      113.11418       86.96178629        1.52716227
      113.21387       89.44761254        1.54192460
      113.31357       89.94406711        1.71720197
      113.41326       92.62367465        1.65622506
      113.51296       91.11453592        1.54510279
      113.61265       91.69160188        1.49561329
      113.71234       88.75935463        1.40539587
      113.81204       93.13350700        1.64952318
      113.91173       90.73511659        1.57757071
      114.01142       90.07747111        1.55597493
      114.11112       87.36718449        1.53142921
      114.21081       89.45186494        1.56091502
      114.31050       90.20687895        1.77764130
      114.41020       88.95554216        1.63113416
      114.50989       88.68586067        1.52467789
      114.60958       84.83257926        1.44284979
      114.70928       83.88559698        1.38376277
      114.80897       83.27798372        1.56371436
      114.90866       83.87530420        1.48021004
      115.00836       83.66719629        1.47145177
      115.10805       82.96640143        1.47322111
      115.20774       85.04412681        1.51423643
      115.30744       88.86050841        1.77744137
      115.40713       84.60693686        1.57069455
      115.50682       87.26196431        1.50608433
      115.60652       90.62144537        1.47937319
      115.70621       90.04293608        1.41720984
      115.80590       91.06677117        1.66272289
      115.90560       92.58317774        1.51961290
      116.00529       94.63616737        1.55362322
      116.10498       96.22285565        1.58305026
      116.20468      103.16683854        1.67721979
      116.30437       97.19448696        1.94020766
      116.40406      100.86415328        1.72166627
      116.50376      101.92523392        1.63556184
      116.60345      106.85024667        1.60777684
      116.70314      110.64221007        1.58663558
      116.80284      114.64593540        1.91930461
      116.90253      117.70316789        1.74956774
      117.00222      122.76716368        1.77298960
      117.10192      126.29019147        1.84665729
      117.20161      127.79859659        1.88036654
      117.30131      128.25794076        2.25416320
      117.40100      133.74946631        1.93559499
      117.50069      137.52570823        1.86436871
      117.60039      143.02787462        1.81989985
      117.70008      151.67552028        1.81614420
      117.79977      154.90222040        2.24929693
      117.89947      155.42375014        1.95870531
      117.99916      158.71878635        2.00319378
      118.09885      158.57824120        2.03983871
      118.19855      166.25147509        2.18816853
      118.29824      173.11976578        2.44844424
      118.39793      170.45004910        2.20558419
      118.49763      173.10661444        2.09761423
      118.59732      175.79232602        2.04104460
      118.69701      177.60538689        2.13731272
      118.79671      177.20772736        2.30518551
      118.89640      182.60043432        2.18211824
      118.99609      177.92877082        2.15136780
      119.09579      175.32650819        2.16027325
      119.19548      184.02415876        2.41902253
      119.29517      178.01220630        2.47126955
      119.39487      176.09094912        2.25930785
      119.49456      171.39915402        2.10019521
      119.59425      165.64299421        2.00467694
      119.69395      168.29302012        2.13200498
      119.79364      161.54081840        2.11049153
      119.89333      160.91979668        2.03860030
      119.99303      152.33973791        1.93602881
      120.09272      147.73092133        1.94965490
      120.19241      139.78061438        2.13107387
      120.29211      141.57620863        2.12298324
      120.39180      140.14990014        2.01508911
      120.49149      133.81192463        1.83086046
      120.59119      126.12773237        1.72480810
      120.69088      124.66701545        1.84588712
      120.79057      122.78019260        1.79242115
      120.89027      120.50804610        1.74324205
      120.98996      120.59536729        1.73047670
      121.08966      118.76875450        1.73006632
      121.18935      123.13017823        2.01949658
      121.28904      117.72871770        1.92428057
      121.38874      117.77081004        1.82001173
      121.48843      113.92002605        1.69045106
      121.58812      113.66731891        1.61046062
      121.68782      115.79408280        1.80086494
      121.78751      116.77579309        1.72336902
      121.88720      112.93290502        1.67288120
      121.98690      114.09276849        1.69411726
      122.08659      114.67935997        1.73251579
      122.18628      110.79606993        1.97522999
      122.28598      112.29149214        1.87007698
      122.38567      106.38200448        1.74291043
      122.48536      109.86610826        1.67566236
      122.58506      109.77526584        1.58636751
      122.68475      104.87371897        1.75674703
      122.78444      108.32554475        1.68137712
      122.88414      107.99676087        1.66455346
      122.98383      106.47595100        1.68656725
      123.08352      105.16856430        1.66177174
      123.18322      104.24784281        1.92958686
      123.28291      103.09896720        1.74393942
      123.38260      104.46625314        1.69474612
      123.48230      101.67676150        1.61130423
      123.58199      101.44613949        1.50432168
      123.68168       97.92466787        1.68632153
      123.78138       96.26029012        1.50833495
      123.88107       93.43843292        1.45155891
      123.98076       91.99078832        1.46683879
      124.08046       88.35244420        1.42221049
      124.18015       88.53334199        1.61140267
      124.27984       88.13236120        1.44041803
      124.37954       85.85862867        1.34146929
      124.47923       84.58976748        1.29984249
      124.57893       82.98197042        1.37154764
