        5.04651       65.33227070        1.24396083
        5.14621       64.75554832        1.19344762
        5.24590       61.55877067        1.14629557
        5.34559       62.55008847        1.05995505
        5.44529       61.90238358        1.14702029
        5.54498       60.36531038        0.95254042
        5.64467       59.43431863        0.93675432
        5.74437       59.15315791        0.84355300
        5.84406       58.72809903        0.85053809
        5.94375       58.79408060        0.84988480
        6.04345       58.85357827        0.82624862
        6.14314       59.20563890        0.75882903
        6.24283       57.51030883        0.77234685
        6.34253       59.46918298        0.74935474
        6.44222       58.24623384        0.78072278
        6.54191       56.47960390        0.72808904
        6.64161       57.05443569        0.69331698
        6.74130       57.01518972        0.69587323
        6.84099       57.44894126        0.69350998
        6.94069       56.07389538        0.69531141
        7.04038       57.15325181        0.64809168
        7.14007       57.20568785        0.64705048
        7.23977       56.29990167        0.63058541
        7.33946       56.37512162        0.64067385
        7.43915       56.35605115        0.63220480
        7.53885       57.36375383        0.62617302
        7.63854       55.80764086        0.59014945
        7.73823       56.13321374        0.61460682
        7.83793       55.73120203        0.59258726
        7.93762       56.03184599        0.61985125
        8.03732       55.43976104        0.55289722
        8.13701       56.92681338        0.55787816
        8.23670       56.02618877        0.56116933
        8.33640       54.80264967        0.55504249
        8.43609       55.83352612        0.58581095
        8.53578       56.72222028        0.55005883
        8.63548       55.24978086        0.53649580
        8.73517       55.31636018        0.52659357
        8.83486       55.59152551        0.52921252
        8.93456       56.66304656        0.53164311
        9.03425       56.27896220        0.51428873
        9.13394       54.76040975        0.50812408
        9.23364       55.43745360        0.51878141
        9.33333       56.58726110        0.53491182
        9.43302       55.35857647        0.52915673
        9.53272       56.04245389        0.51448827
        9.63241       54.90649705        0.52353817
        9.73210       55.50945064        0.52540474
        9.83180       55.01247339        0.54496475
        9.93149       54.58565576        0.53892093
       10.03118       55.20430872        0.52153111
       10.13088       55.97603144        0.51264844
       10.23057       55.89684396        0.53646010
       10.33026       56.09776379        0.55553730
       10.42996       54.69958818        0.54092311
       10.52965       54.46900076        0.52273236
       10.62934       55.71971265        0.53008502
       10.72904       55.77642287        0.53820360
       10.82873       54.39964656        0.52871489
       10.92842       54.56858370        0.53842700
       11.02812       55.67792635        0.51825294
       11.12781       56.85910880        0.54261837
       11.22750       55.60679494        0.54183798
       11.32720       57.25613128        0.56476512
       11.42689       55.99086478        0.53899509
       11.52658       56.58093860        0.53542522
       11.62628       56.18714026        0.53931119
       11.72597       57.35207825        0.55655873
       11.82567       56.04012965        0.56532627
       11.92536       57.30860551        0.53511480
       12.02505       59.12948497        0.54625257
       12.12475       61.27311035        0.55576653
       12.22444       63.71989951        0.60121989
       12.32413       68.88561770        0.63518170
       12.42383       74.25361412        0.62646731
       12.52352       80.57888994        0.64918047
       12.62321       88.16382542        0.69906693
       12.72291       99.77294589        0.72485795
       12.82260      115.04444708        0.84796426
       12.92229      123.76771925        0.79964588
       13.02199      146.04024137        0.86451605
       13.12168      178.28878129        0.97643610
       13.22137      214.88779857        1.11267452
       13.32107      247.41155328        1.23803911
       13.42076      289.72552423        1.29756192
       13.52045      320.97118658        1.38832245
       13.62015      335.26639550        1.37802766
       13.71984      324.04157017        1.40985982
       13.81953      300.63637920        1.37684617
       13.91923      269.42225379        1.21946869
       14.01892      214.27675464        1.05091867
       14.11861      165.46365447        0.95706231
       14.21831      131.64209163        0.85049314
       14.31800      107.03638648        0.80454873
       14.41769       85.28569029        0.68940455
       14.51739       74.00976911        0.62553084
       14.61708       63.33259803        0.57914149
       14.71677       57.14336953        0.55854519
       14.81647       55.13332138        0.57455813
       14.91616       54.42782026        0.52492666
       15.01585       52.93763927        0.52689054
       15.11555       52.33065452        0.52987760
       15.21524       51.03735736        0.53920848
       15.31493       50.33934918        0.54835580
       15.41463       51.12252092        0.53511987
       15.51432       50.05790451        0.51301676
       15.61402       49.85920378        0.52494437
       15.71371       49.80722031        0.52106203
       15.81340       50.12618942        0.54382017
       15.91310       50.68936473        0.53141844
       16.01279       50.06460022        0.50562754
       16.11248       49.63824564        0.51695173
       16.21218       50.16168167        0.53412002
       16.31187       49.49658428        0.53180306
       16.41156       51.17068252        0.53080760
       16.51126       51.08229802        0.53930807
       16.61095       51.61225779        0.52275487
       16.71064       51.04948830        0.53628169
       16.81034       53.36030541        0.55016508
       16.91003       54.46798709        0.53991958
       17.00972       56.98578611        0.53039575
       17.10942       60.44379035        0.57769845
       17.20911       63.58289891        0.59805984
       17.30880       67.11379865        0.62014338
       17.40850       70.27752470        0.63477517
       17.50819       73.97886862        0.63278489
       17.60788       76.49805612        0.66372984
       17.70758       77.23515776        0.66975222
       17.80727       76.81747133        0.67613680
       17.90696       73.75614214        0.61912418
       18.00666       69.37623887        0.61054608
       18.10635       65.53759404        0.57682457
       18.20604       62.04516594        0.61533481
       18.30574       59.75217403        0.57529208
       18.40543       57.05166258        0.54797869
       18.50512       56.65405177        0.56326193
       18.60482       56.03629277        0.55133796
       18.70451       54.59409862        0.57494185
       18.80420       53.63245743        0.53524992
       18.90390       52.06322877        0.52158958
       19.00359       51.87406775        0.50701497
       19.10328       50.59657982        0.52965215
       19.20298       49.63789431        0.54084418
       19.30267       49.43249870        0.51828942
       19.40237       47.92311823        0.50440727
       19.50206       47.94504823        0.51720930
       19.60175       48.69626212        0.51546799
       19.70145       48.01819289        0.53667637
       19.80114       48.63000692        0.51229227
       19.90083       48.31544717        0.49334924
       20.00053       48.24946924        0.50175434
       20.10022       47.62670920        0.50215379
       20.19991       49.57259530        0.54790109
       20.29961       50.82564523        0.52577390
       20.39930       51.15809720        0.54345700
       20.49899       53.11835294        0.54433579
       20.59869       53.93996555        0.55863824
       20.69838       54.89988839        0.58446734
       20.79807       55.52833664        0.56070760
       20.89777       56.83507143        0.55455904
       20.99746       58.61343107        0.56894315
       21.09715       60.35378933        0.60829379
       21.19685       59.01232140        0.59822150
       21.29654       61.01520227        0.59358799
       21.39623       59.39852013        0.58553795
       21.49593       57.18278887        0.56608419
       21.59562       56.29871879        0.57512870
       21.69531       53.80953194        0.58458326
       21.79501       51.72337652        0.52411839
       21.89470       49.05764604        0.49871699
       21.99439       47.93174644        0.51376067
       22.09409       47.37135735        0.51196425
       22.19378       47.14144246        0.54235859
       22.29347       47.69411298        0.50812379
       22.39317       46.53861529        0.51483019
       22.49286       46.63393775        0.51495379
       22.59255       45.91973958        0.51693944
       22.69225       48.12656318        0.55790194
       22.79194       46.68007403        0.49333655
       22.89163       46.01676609        0.48018654
       22.99133       47.39714488        0.50097010
       23.09102       46.92746081        0.51765220
       23.19072       46.21357786        0.51484743
       23.29041       47.27661137        0.51434670
       23.39010       47.39051354        0.52037110
       23.48980       46.52801489        0.51740835
       23.58949       45.49310487        0.51838919
       23.68918       45.79499214        0.54695380
       23.78888       45.81517061        0.48755406
       23.88857       45.84122409        0.49407678
       23.98826       45.75119729        0.50460897
       24.08796       45.98336728        0.49605108
       24.18765       47.18474250        0.53853351
       24.28734       46.45740030        0.50870506
       24.38704       46.54878252        0.51772395
       24.48673       45.38753587        0.50929419
       24.58642       46.22168980        0.53103574
       24.68612       46.48201544        0.53184955
       24.78581       46.20487861        0.48878775
       24.88550       46.56537758        0.49052158
       24.98520       47.39225984        0.51323631
       25.08489       48.32900188        0.52871851
       25.18458       48.99245892        0.54358032
       25.28428       48.43035069        0.52084893
       25.38397       49.08567793        0.52187332
       25.48366       51.78053646        0.53946677
       25.58336       55.55619913        0.58280538
       25.68305       60.70138016        0.59800585
       25.78274       69.58738227        0.60519559
       25.88244       84.33697596        0.68470932
       25.98213      110.05397740        0.79182360
       26.08182      138.21786013        0.91468020
       26.18152      164.98043407        1.02766447
       26.28121      191.81156444        1.05237736
       26.38090      198.39390730        1.08017552
       26.48060      194.84514638        1.09931383
       26.58029      176.49441810        1.08837413
       26.67998      152.52076291        0.95212087
       26.77968      121.71094137        0.83649500
       26.87937       94.56669683        0.72379483
       26.97907       78.00946213        0.65029377
       27.07876       73.94097280        0.68135601
       27.17845       74.08252082        0.65180909
       27.27815       79.09281132        0.65827168
       27.37784       84.53816124        0.70771574
       27.47753       86.99037295        0.70759102
       27.57723       86.81540962        0.74046981
       27.67692       83.85923547        0.70999607
       27.77661       76.81940884        0.64784228
       27.87631       70.20883072        0.60840568
       27.97600       63.69425927        0.59193534
       28.07569       58.00472264        0.59730084
       28.17539       54.19432593        0.55236432
       28.27508       51.75748494        0.53981995
       28.37477       51.92998976        0.55360624
       28.47447       52.75052576        0.55368399
       28.57416       53.37915338        0.60222102
       28.67385       54.83551259        0.54318079
       28.77355       55.76188326        0.53794889
       28.87324       58.71747563        0.56701107
       28.97293       60.48209101        0.57698556
       29.07263       60.56252694        0.62936965
       29.17232       60.29485570        0.57305774
       29.27201       58.75443879        0.57599018
       29.37171       55.78036430        0.57704131
       29.47140       53.40362937        0.55787128
       29.57109       53.13836414        0.59007199
       29.67079       50.89275080        0.52551873
       29.77048       49.51828773        0.51945256
       29.87017       49.97667571        0.51164944
       29.96987       49.38144092        0.53321933
       30.06956       49.52461351        0.55092368
       30.16925       49.41760894        0.51815815
       30.26895       50.62096656        0.52654247
       30.36864       51.16467604        0.53806412
       30.46833       52.82806653        0.55243940
       30.56803       56.55381908        0.60417516
       30.66772       58.62478877        0.57263214
       30.76742       63.43959725        0.58423879
       30.86711       65.08454921        0.60372204
       30.96680       66.95812651        0.61608487
       31.06650       64.99008346        0.63621681
       31.16619       63.31917913        0.59028819
       31.26588       61.03920721        0.57585816
       31.36558       60.41004689        0.58032437
       31.46527       61.38673413        0.60879989
       31.56496       65.52129420        0.63952398
       31.66466       69.28584113        0.61541013
       31.76435       76.65813395        0.64745493
       31.86404       83.50586101        0.66761881
       31.96374       87.94243843        0.70151364
       32.06343       89.20437194        0.73129230
       32.16312       87.83267016        0.68179809
       32.26282       80.29075166        0.66695993
       32.36251       72.34525522        0.65756716
       32.46220       65.91289528        0.63823648
       32.56190       61.34138482        0.62615519
       32.66159       57.01252167        0.57284275
       32.76128       53.93547820        0.54438320
       32.86098       53.93484803        0.55255688
       32.96067       54.42730484        0.56207677
       33.06036       54.04540270        0.57028414
       33.16006       54.76377425        0.54069470
       33.25975       54.93473159        0.55914768
       33.35944       55.95344791        0.56746684
       33.45914       58.11376646        0.60053993
       33.55883       59.94650597        0.61155702
       33.65852       62.55929325        0.58282234
       33.75822       67.44186233        0.60457657
       33.85791       73.99021172        0.63649940
       33.95760       83.99053699        0.69930938
       34.05730       93.29878720        0.73094708
       34.15699      104.19596324        0.76144904
       34.25668      119.71671586        0.81527081
       34.35638      145.32312231        0.92500728
       34.45607      188.50150646        1.11672390
       34.55577      234.43868117        1.19450329
       34.65546      308.68219704        1.32824510
       34.75515      395.20172340        1.54959393
       34.85485      454.67554510        1.66205605
       34.95454      460.35047537        1.72538042
       35.05423      427.71194379        1.71200601
       35.15393      363.86388779        1.46997356
       35.25362      278.34849044        1.29048662
       35.35331      202.31060435        1.11698154
       35.45301      145.49467050        0.98056832
       35.55270      110.14372681        0.82662934
       35.65239       90.75072048        0.72277019
       35.75209       81.40587903        0.67867324
       35.85178       78.64066318        0.66591914
       35.95147       72.72333170        0.65482385
       36.05117       69.18327115        0.62518387
       36.15086       63.81470862        0.57682127
       36.25055       59.94409956        0.58370097
       36.35025       56.83686932        0.57919800
       36.44994       55.74087848        0.58494581
       36.54963       54.08492796        0.55296321
       36.64933       52.69706243        0.53754913
       36.74902       53.29814483        0.54631287
       36.84871       53.96457624        0.54581530
       36.94841       53.77630975        0.58921686
       37.04810       53.78550250        0.51958607
       37.14779       51.96237031        0.52101155
       37.24749       52.04367709        0.53593106
       37.34718       50.76894563        0.54270955
       37.44687       51.22506174        0.58563680
       37.54657       51.45214477        0.53585290
       37.64626       50.15074287        0.52688507
       37.74595       51.22909556        0.52429160
       37.84565       50.65605759        0.55158159
       37.94534       50.89197496        0.56325192
       38.04503       50.33077048        0.50621760
       38.14473       51.64073127        0.51790580
       38.24442       51.73348267        0.52785311
       38.34412       52.78785575        0.55756053
       38.44381       52.04249828        0.59853676
       38.54350       53.19909600        0.53954717
       38.64320       53.63104071        0.54013164
       38.74289       54.08301461        0.54953993
       38.84258       56.86260708        0.56511976
       38.94228       59.50066542        0.60660668
       39.04197       63.81872115        0.56690221
       39.14166       69.28037308        0.61500965
       39.24136       72.31825175        0.62697239
       39.34105       72.38551658        0.64913675
       39.44074       72.72954211        0.70977525
       39.54044       72.07805232        0.63171397
       39.64013       70.85926869        0.62430967
       39.73982       66.84709553        0.60841893
       39.83952       63.31535074        0.58777545
       39.93921       60.60295395        0.60945367
       40.03890       59.09831214        0.55076210
       40.13860       57.01216554        0.54006083
       40.23829       57.43143860        0.56126042
       40.33798       56.83850626        0.57570194
       40.43768       57.19923664        0.60428719
       40.53737       58.44403972        0.56704865
       40.63706       59.61289327        0.58483361
       40.73676       62.29688835        0.59718224
       40.83645       63.70054149        0.60906122
       40.93614       66.60273169        0.63353122
       41.03584       70.75670338        0.61493957
       41.13553       81.42056214        0.66155676
       41.23522       97.83779495        0.74476082
       41.33492      118.80233399        0.86191068
       41.43461      141.16505855        0.97293177
       41.53430      163.96382006        0.98526806
       41.63400      187.11424271        1.07912915
       41.73369      197.80746322        1.08684287
       41.83338      196.79264780        1.11265761
       41.93308      196.09956273        1.10064234
       42.03277      194.57848048        1.00173668
       42.13247      219.82878007        1.12326478
       42.23216      273.55264888        1.26503680
       42.33185      363.43079624        1.58530255
       42.43155      461.10659435        1.78298502
       42.53124      558.96350481        1.92538812
       42.63093      626.23734787        2.05924197
       42.73063      634.48550394        2.08343453
       42.83032      583.12074715        2.01830661
       42.93001      498.17855997        1.77477456
       43.02971      367.13318174        1.41338318
       43.12940      249.05237471        1.16821472
       43.22909      166.75405503        0.99320050
       43.32879      123.14842525        0.89392756
       43.42848       96.55881741        0.77149587
       43.52817       79.47528091        0.66820816
       43.62787       72.14647516        0.63400924
       43.72756       66.56513159        0.62294022
       43.82725       64.11541179        0.63818342
       43.92695       61.33792252        0.56580012
       44.02664       59.25306570        0.55325885
       44.12633       59.38897888        0.57455972
       44.22603       58.62957860        0.59412556
       44.32572       58.23095702        0.62401031
       44.42541       57.53379564        0.59212650
       44.52511       58.91915470        0.58323583
       44.62480       59.09914336        0.59240166
       44.72449       62.25579159        0.58953694
       44.82419       65.23900898        0.67752628
       44.92388       69.12701406        0.58202389
       45.02357       74.65033664        0.61030712
       45.12327       81.73347377        0.65846028
       45.22296       97.37721101        0.73942129
       45.32265      113.28223872        0.88428488
       45.42235      133.42151723        0.87640225
       45.52204      170.26109414        0.98561633
       45.62174      217.51519689        1.14254778
       45.72143      263.05093574        1.26522538
       45.82112      291.77211289        1.46513018
       45.92082      308.40743297        1.28213926
       46.02051      294.12413767        1.27596727
       46.12020      250.75308166        1.17391544
       46.21990      203.84606240        1.10401316
       46.31959      160.94327721        1.05214935
       46.41928      122.31421532        0.84202260
       46.51898       94.02673523        0.73914757
       46.61867       74.07637525        0.65080255
       46.71836       64.90290801        0.62404128
       46.81806       60.91382792        0.62657486
       46.91775       59.13330430        0.53802520
       47.01744       58.32243782        0.54701695
       47.11714       61.03120094        0.57262390
       47.21683       64.54711331        0.60656842
       47.31652       70.68239558        0.69314641
       47.41622       78.67011425        0.68997660
       47.51591       93.63042411        0.75587378
       47.61560      113.05053049        0.82610555
       47.71530      138.47663431        0.92785035
       47.81499      165.40773601        1.04398572
       47.91468      193.06574665        0.99096009
       48.01438      214.49270956        1.04846219
       48.11407      217.80500819        1.09655426
       48.21376      202.99675941        1.10259015
       48.31346      178.53590841        1.06663662
       48.41315      150.89735912        0.91000466
       48.51284      117.46444117        0.82517561
       48.61254       92.32623167        0.72571678
       48.71223       76.27866266        0.66996620
       48.81192       65.76472869        0.61963232
       48.91162       57.84799760        0.52034640
       49.01131       54.83784912        0.52417918
       49.11100       54.22782819        0.54001038
       49.21070       51.52863919        0.55241043
       49.31039       52.77925919        0.57551905
       49.41009       51.37854684        0.53629417
       49.50978       50.37184359        0.54190756
       49.60947       51.54200835        0.55229081
       49.70917       49.10766764        0.55884363
       49.80886       49.36040629        0.54531504
       49.90855       51.07523467        0.50545268
       50.00825       50.68156807        0.51410062
       50.10794       52.00575622        0.53274794
       50.20763       51.97024073        0.55640479
       50.30733       51.39780117        0.57955097
       50.40702       54.26366156        0.55870773
       50.50671       54.97415754        0.56407453
       50.60641       55.85597402        0.56947307
       50.70610       57.38425435        0.59408644
       50.80579       57.19430459        0.58525635
       50.90549       56.71035969        0.52537695
       51.00518       56.01106115        0.52669293
       51.10487       55.50175187        0.54190927
       51.20457       57.20435728        0.58586599
       51.30426       56.85006081        0.58097507
       51.40395       56.89899964        0.55720878
       51.50365       59.19218791        0.57504586
       51.60334       60.77294324        0.59434372
       51.70303       62.22620199        0.63882227
       51.80273       60.82710490        0.57920735
       51.90242       62.34742878        0.54802448
       52.00211       62.74313816        0.55239847
       52.10181       63.61054602        0.57389385
       52.20150       62.49200552        0.62631110
       52.30119       62.96113910        0.60563439
       52.40089       62.40313853        0.59344607
       52.50058       62.08730014        0.60309220
       52.60027       61.13514875        0.60652386
       52.69997       59.37285967        0.65484553
       52.79966       58.10943817        0.54454059
       52.89935       61.88866952        0.54258814
       52.99905       68.52849429        0.58092185
       53.09874       81.39787704        0.65491778
       53.19844       95.72640760        0.81518746
       53.29813      112.95053701        0.78909645
       53.39782      133.32442986        0.88977093
       53.49752      148.91742258        0.94694556
       53.59721      161.88150462        0.98854805
       53.69690      169.13638464        1.10996561
       53.79660      169.56649042        0.93099843
       53.89629      159.84094030        0.89270528
       53.99598      141.26304848        0.85711232
       54.09568      124.54238131        0.83814786
       54.19537      110.47602733        0.85899191
       54.29506       98.54860145        0.74391924
       54.39476       89.94096783        0.71523176
       54.49445       84.87442519        0.69474920
       54.59414       81.75004670        0.69189373
       54.69384       79.20200729        0.72622270
       54.79353       78.56875177        0.62021178
       54.89322       77.12314090        0.61212681
       54.99292       74.23650359        0.61785530
       55.09261       70.84765341        0.62734787
       55.19230       67.20621102        0.65576622
       55.29200       63.80877367        0.59439058
       55.39169       61.37448676        0.60125690
       55.49138       58.92455736        0.58671067
       55.59108       57.25408837        0.59671538
       55.69077       56.35247445        0.60745651
       55.79046       56.26421817        0.53066354
       55.89016       55.30442564        0.52477351
       55.98985       58.22029658        0.54215538
       56.08954       60.87410524        0.57290426
       56.18924       67.46950925        0.65164686
       56.28893       75.62393192        0.63227579
       56.38862       86.08063113        0.69896571
       56.48832       98.92134502        0.76376272
       56.58801      107.37561405        0.81982221
       56.68770      111.82547586        0.86407363
       56.78740      114.63426256        0.74905721
       56.88709      109.73966692        0.73959227
       56.98679      100.63709470        0.70783086
       57.08648       90.60625334        0.71082111
       57.18617       81.01276016        0.69488673
       57.28587       72.96773623        0.61538335
       57.38556       65.46407744        0.61973812
       57.48525       60.79566411        0.60825179
       57.58495       57.45121802        0.60450774
       57.68464       54.91051129        0.59589278
       57.78433       53.55790682        0.51470978
       57.88403       53.23156182        0.51909220
       57.98372       53.38071977        0.52811008
       58.08341       53.38827438        0.57105072
       58.18311       53.20948247        0.58315041
       58.28280       53.72498217        0.55196657
       58.38249       52.55159495        0.57030384
       58.48219       53.15457269        0.58601298
       58.58188       51.87422846        0.58511336
       58.68157       51.39580043        0.57066375
       58.78127       52.53978714        0.50478607
       58.88096       53.85529963        0.50364086
       58.98065       55.25488307        0.52969637
       59.08035       57.96090293        0.57915894
       59.18004       60.24009485        0.59917696
       59.27973       61.78777910        0.57268104
       59.37943       63.45196506        0.59963836
       59.47912       67.94591961        0.64643445
       59.57881       73.93796856        0.70713729
       59.67851       76.74083216        0.67194827
       59.77820       81.61597290        0.63752528
       59.87789       90.90816993        0.67146374
       59.97759       97.66900515        0.72883788
       60.07728      104.27277603        0.81639051
       60.17697      106.12923891        0.78483511
       60.27667      106.97990371        0.76620144
       60.37636      106.70258551        0.78001402
       60.47605      104.53367700        0.80513999
       60.57575       98.24513627        0.85455024
       60.67544       93.27152195        0.71477412
       60.77514       84.63445922        0.64638192
       60.87483       77.15837568        0.60446560
       60.97452       71.75233690        0.61354674
       61.07422       68.23664599        0.67175767
       61.17391       68.09796645        0.58129808
       61.27360       66.09891496        0.59283443
       61.37330       68.46468278        0.62598260
       61.47299       70.24401291        0.66213408
       61.57268       71.15668766        0.75795927
       61.67238       72.08854132        0.62188538
       61.77207       71.92136576        0.60495048
       61.87176       70.50545901        0.59214794
       61.97146       69.39678218        0.60980670
       62.07115       67.56769034        0.68126941
       62.17084       64.90287904        0.58471853
       62.27054       62.31868910        0.59714975
       62.37023       61.10235714        0.61471972
       62.46992       59.76389016        0.62864067
       62.56962       58.87804548        0.70069757
       62.66931       58.83237729        0.56425261
       62.76900       60.22072410        0.55654272
       62.86870       65.83996481        0.56976302
       62.96839       72.05532664        0.61569107
       63.06808       82.25588902        0.73331223
       63.16778       95.17518778        0.70171211
       63.26747      115.19725693        0.80156912
       63.36716      133.46707741        0.89810663
       63.46686      155.29137556        1.00142764
       63.56655      167.39083326        1.10673788
       63.66624      186.06508413        0.99477073
       63.76594      200.24348621        1.00467448
       63.86563      201.97074528        1.00604685
       63.96532      192.75995647        1.02679072
       64.06502      177.56097095        1.05305230
       64.16471      156.74948923        0.91203097
       64.26440      132.87404896        0.87073147
       64.36410      109.96757714        0.80512510
       64.46379       92.81450456        0.78009900
       64.56349       82.18497932        0.74588912
       64.66318       73.40055380        0.61614472
       64.76287       66.79166504        0.57993524
       64.86257       61.03850713        0.55306476
       64.96226       58.25509414        0.56571729
       65.06195       57.88814239        0.60976863
       65.16165       55.16069816        0.53669983
       65.26134       53.74526534        0.54204069
       65.36103       55.70125175        0.57600413
       65.46073       55.28864268        0.59267917
       65.56042       56.32303354        0.62489294
       65.66011       57.63897058        0.55133463
       65.75981       59.95930709        0.55692060
       65.85950       61.74637964        0.56172370
       65.95919       63.36258909        0.59581390
       66.05889       67.97453859        0.63881398
       66.15858       75.75744708        0.64213587
       66.25827       84.81575171        0.70371495
       66.35797      100.93588496        0.80184175
       66.45766      113.29918525        0.90442540
       66.55735      127.44012490        0.96109183
       66.65705      142.37301354        0.90318548
       66.75674      152.66655282        0.91276734
       66.85643      161.28401070        0.92867184
       66.95613      166.90246638        0.98305192
       67.05582      165.06778430        0.98460366
       67.15551      159.41605660        0.91991309
       67.25521      145.12008442        0.91912010
       67.35490      129.00698040        0.90997380
       67.45459      114.51213720        0.90215232
       67.55429      101.55034668        0.81237809
       67.65398       87.10645396        0.67292190
       67.75367       77.81998872        0.62995789
       67.85337       75.10881387        0.62628183
       67.95306       76.56818756        0.67636246
       68.05275       83.47904487        0.66951516
       68.15245       93.38031222        0.70317234
       68.25214      102.62745475        0.78359151
       68.35184      110.04703897        0.84663526
       68.45153      116.83350901        0.96135487
       68.55122      121.19119114        0.84402026
       68.65092      126.79825441        0.80536343
       68.75061      126.26011259        0.81180139
       68.85030      124.30215577        0.82068863
       68.95000      119.46629416        0.91144510
       69.04969      110.24952354        0.73832169
       69.14938       95.52108310        0.70498257
       69.24908       83.80487368        0.70387766
       69.34877       74.22405052        0.68408728
       69.44846       68.08522912        0.75924626
       69.54816       62.40860865        0.56625465
       69.64785       58.16497787        0.53862254
       69.74754       55.35942020        0.53052957
       69.84724       53.75285279        0.53627444
       69.94693       52.59090084        0.59852944
       70.04662       50.84868718        0.48383201
       70.14632       49.68950958        0.49725198
       70.24601       48.76921109        0.52738603
       70.34570       49.55646648        0.56263904
       70.44540       50.02574299        0.66610749
       70.54509       50.32221377        0.52295459
       70.64478       51.48002134        0.52829044
       70.74448       52.66733634        0.54292932
       70.84417       51.18060376        0.55523666
       70.94386       52.53588079        0.61765662
       71.04356       53.79689409        0.51732011
       71.14325       56.53159671        0.55134311
       71.24294       56.99072515        0.58249912
       71.34264       57.34900007        0.61962624
       71.44233       56.87247343        0.68850046
       71.54202       57.76428180        0.56499051
       71.64172       57.30888091        0.54737887
       71.74141       56.28625027        0.53253474
       71.84110       55.53322604        0.54748584
       71.94080       54.63773011        0.59166711
       72.04049       54.63100743        0.50075637
       72.14019       54.31556304        0.52020332
       72.23988       55.24703458        0.54903056
       72.33957       54.81974675        0.61084913
       72.43927       55.14756914        0.67446850
       72.53896       54.78616917        0.53896938
       72.63865       56.36410059        0.53449716
       72.73835       58.48957952        0.53270313
       72.83804       62.85603558        0.58357499
       72.93773       63.31317825        0.62218406
       73.03743       66.29374633        0.55291288
       73.13712       69.39005063        0.59686884
       73.23681       69.96492394        0.62971923
       73.33651       69.51758724        0.69064106
       73.43620       70.63623217        0.75420260
       73.53589       68.69018653        0.59976628
       73.63559       68.94000489        0.59144619
       73.73528       68.56916220        0.58713564
       73.83497       66.86608805        0.61450092
       73.93467       63.25735012        0.62897536
       74.03436       64.15706793        0.56067316
       74.13405       61.04255153        0.56983916
       74.23375       59.07974134        0.58374980
       74.33344       58.07816256        0.63704729
       74.43313       58.49762381        0.66347046
       74.53283       58.20866003        0.56228820
       74.63252       59.74007268        0.56565790
       74.73221       61.50964104        0.57134006
       74.83191       65.11048428        0.62394481
       74.93160       69.24662389        0.65116287
       75.03129       74.91563114        0.60270603
       75.13099       86.26680615        0.67119375
       75.23068       98.62105883        0.75010424
       75.33037      113.53505969        0.88687029
       75.43007      123.52073592        0.93992973
       75.52976      138.27418208        0.86587457
       75.62945      154.72534088        0.91758162
       75.72915      162.69025533        0.93834136
       75.82884      166.80597297        1.02361175
       75.92854      166.86191498        0.96103292
       76.02823      165.78872541        0.89820730
       76.12792      160.65038674        0.92331998
       76.22762      152.31938281        0.94722085
       76.32731      141.96127800        1.03096217
       76.42700      130.85091446        0.93244217
       76.52670      117.35868640        0.81281709
       76.62639      102.24992055        0.74720686
       76.72608       92.99267723        0.69968548
       76.82578       88.51287398        0.78599457
       76.92547       89.43390600        0.63294431
       77.02516       97.84082535        0.68715067
       77.12486      107.90823178        0.75936547
       77.22455      122.66780134        0.86422576
       77.32424      133.34897914        1.10895965
       77.42394      144.32231454        0.92287055
       77.52363      149.97534762        0.90994073
       77.62332      158.06295057        0.93111452
       77.72302      168.92570890        0.96647751
       77.82271      170.85022502        1.14021608
       77.92240      172.97047345        0.87881225
       78.02210      167.52521830        0.93237964
       78.12179      160.62352429        0.97398921
       78.22148      144.29426346        0.97355668
       78.32118      133.95623234        1.08658912
       78.42087      117.87685728        0.80005265
       78.52056      101.77117887        0.76561663
       78.62026       88.57291414        0.70708437
       78.71995       78.05840101        0.66485160
       78.81964       72.69248228        0.71602460
       78.91934       67.06162726        0.53240930
       79.01903       62.89496078        0.56490595
       79.11872       59.16925652        0.56987975
       79.21842       59.91498092        0.61184369
       79.31811       59.27062368        0.68540756
       79.41780       60.43403782        0.56155143
       79.51750       61.01480071        0.57339058
       79.61719       62.15482731        0.58054014
       79.71689       63.63001019        0.61000445
       79.81658       64.47783092        0.65102171
       79.91627       66.08211760        0.55881722
       80.01597       66.45031045        0.57601734
       80.11566       67.55755887        0.60725940
       80.21535       66.60602448        0.64443788
       80.31505       68.00493738        0.77427194
       80.41474       70.89011071        0.60775505
       80.51443       72.23089406        0.61092924
       80.61413       73.36831224        0.63626097
       80.71382       77.58624447        0.67732697
       80.81351       79.98076983        0.77305423
       80.91321       84.02754204        0.58468712
       81.01290       95.32676907        0.67350099
       81.11259      112.37664305        0.79142145
       81.21229      128.53659135        0.91781879
       81.31198      141.85518881        1.07774473
       81.41167      162.76929278        0.90681510
       81.51137      186.10299315        1.00104694
       81.61106      206.17465894        1.10352935
       81.71075      222.58822271        1.18963401
       81.81045      233.66401479        1.29338184
       81.91014      264.26523290        1.06260492
       82.00983      294.53372496        1.20459213
       82.10953      316.88607123        1.40250289
       82.20922      329.33979255        1.59309071
       82.30891      336.71976871        1.69092743
       82.40861      339.81758259        1.38200775
       82.50830      330.10607148        1.35651034
       82.60799      323.10594455        1.44407140
       82.70769      314.29549230        1.54779892
       82.80738      306.43187154        1.45842883
       82.90707      290.45545334        1.15012958
       83.00677      269.13157257        1.17575129
       83.10646      244.54413635        1.31371715
       83.20615      224.26907350        1.39598613
       83.30585      200.99024357        1.24743788
       83.40554      174.12335661        0.96129744
       83.50524      145.54824465        0.85377279
       83.60493      120.41213559        0.85214662
       83.70462      105.98545962        0.89952335
       83.80432       96.65723638        0.74970598
       83.90401       83.76557241        0.58434286
       84.00370       75.48546115        0.57789926
       84.10340       68.38939392        0.65663426
       84.20309       67.78811402        0.79366226
       84.30278       65.54705365        0.63450972
       84.40248       65.08565136        0.55801055
       84.50217       65.46351133        0.54906927
       84.60186       65.09051462        0.61905455
       84.70156       65.27679511        0.81127267
       84.80125       65.41411235        0.56542970
       84.90094       65.62788179        0.50878377
       85.00064       65.45177543        0.52347942
       85.10033       66.27618182        0.62350322
       85.20002       67.16096367        1.07665000
       85.29972       67.08172543        0.56759668
       85.39941       67.04215169        0.57851638
       85.49910       68.33982072        0.56813814
       85.59880       68.60162578        0.64010243
       85.69849       69.33107107        1.15544487
       85.79818       68.77266155        0.54250060
       85.89788       68.04870036        0.52667814
       85.99757       69.55186072        0.54724950
       86.09726       68.60454077        0.62392753
       86.19696       69.16569069        1.20335515
       86.29665       68.01791371        0.56460484
       86.39634       68.43980576        0.57622420
       86.49604       67.05624355        0.56161000
       86.59573       64.52200114        0.58671449
       86.69542       64.77936631        1.22919991
       86.79512       61.20812081        0.49568144
       86.89481       59.71914508        0.48259127
       86.99451       59.35068920        0.49864925
       87.09420       57.59935916        0.54769657
       87.19389       59.23114633        1.31599360
       87.29359       55.35309429        0.51523508
       87.39328       53.90049181        0.51516893
       87.49297       52.06912120        0.49138576
       87.59267       52.42086842        0.50276873
       87.69236       51.43834879        1.49001172
       87.79205       53.13275058        0.47187850
       87.89175       54.36312639        0.47356917
       87.99144       54.92165556        0.49604219
       88.09113       54.63290201        0.52581912
       88.19083       54.05761360        2.76752822
       88.29052       53.22271817        0.52213108
       88.39021       51.58451348        0.51731174
       88.48991       52.79775105        0.50238322
       88.58960       53.08800017        0.48787475
       88.68929       53.87003605        3.80765576
       88.78899       54.03944755        0.47519324
       88.88868       52.46439235        0.45786569
       88.98837       52.92273789        0.47833643
       89.08807       51.14108713        0.48148099
       89.18776       58.36377407        4.19035524
       89.28745       52.28895705        0.49474795
       89.38715       52.66075889        0.50163599
       89.48684       54.86053054        0.50124204
       89.58653       57.98992278        0.50514356
       89.68623       61.60575627        4.22348237
       89.78592       63.67026333        0.51482038
       89.88561       68.27130211        0.52304645
       89.98531       72.27608225        0.55221357
       90.08500       80.91365908        0.60687540
       90.18469       78.43015965        4.98099285
       90.28439       87.66071697        0.64586668
       90.38408       93.50040754        0.67889348
       90.48377       99.69225739        0.68856096
       90.58347      102.68798097        0.68817951
       90.68316       99.57790788        5.27595753
       90.78286      102.17566228        0.65703645
       90.88255      102.91797341        0.64171536
       90.98224      102.37369573        0.66211699
       91.08194      102.09217265        0.68286586
       91.18163       97.69053082        5.32629913
       91.28132       97.32159400        0.68589397
       91.38102       93.16134761        0.68839288
       91.48071       86.90787514        0.64787776
       91.58040       78.54573862        0.59481903
       91.68010       82.19420783        4.60622129
       91.77979       73.00736355        0.54998250
       91.87948       67.86031962        0.52159125
       91.97918       65.45036414        0.53169933
       92.07887       63.66281396        0.54607857
       92.17856       67.83788565        4.28912980
       92.27826       64.90199917        0.56957315
       92.37795       67.02880061        0.59277940
       92.47764       69.01543502        0.57120005
       92.57734       75.32268075        0.57951975
       92.67703       83.01878740        3.95455313
       92.77672       83.40240079        0.58855071
       92.87642       91.47103202        0.60542989
       92.97611       98.20281862        0.65579416
       93.07580      101.62828465        0.76185674
       93.17550      102.84620492        1.44144937
       93.27519      102.86051754        0.70661325
       93.37488      104.14317442        0.69129865
       93.47458      107.62767485        0.71091739
       93.57427      108.93603958        0.82707400
       93.67396      107.66507625        1.11094013
       93.77366      107.60517059        0.68800928
       93.87335      103.18347109        0.64305425
       93.97304       97.83954360        0.65196581
       94.07274       89.20270826        0.80702824
       94.17243       87.77430819        0.91320914
       94.27212       82.20628473        0.65761671
       94.37182       77.01393707        0.61978763
       94.47151       72.09945195        0.57381981
       94.57121       68.61724450        0.73834892
       94.67090       68.95339433        0.74877071
       94.77059       67.17363304        0.57433573
       94.87029       63.76265869        0.50853382
       94.96998       61.42284327        0.50523657
       95.06967       61.12888084        0.58100600
       95.16937       60.54740018        0.79147038
       95.26906       60.44901839        0.61092451
       95.36875       59.88545517        0.55170846
       95.46845       59.93371822        0.53043482
       95.56814       59.43514977        0.60777171
       95.66783       57.49469598        0.67133953
       95.76753       57.16289623        0.55313673
       95.86722       54.83983820        0.46066285
       95.96691       53.82990542        0.47332042
       96.06661       52.96713844        0.60136455
       96.16630       52.82092988        0.64039200
       96.26599       51.37424471        0.56704077
       96.36569       52.55042658        0.51469040
       96.46538       51.98167994        0.49397765
       96.56507       49.49786186        0.59469591
       96.66477       50.41395181        0.58491967
       96.76446       50.13812973        0.52123817
       96.86415       50.75275169        0.45430090
       96.96385       52.53617050        0.47754266
       97.06354       52.51812103        0.64562251
       97.16323       53.54081476        0.62340952
       97.26293       53.56493953        0.58582743
       97.36262       53.73121822        0.54335190
       97.46231       52.74100845        0.49516156
       97.56201       54.59595803        0.64115461
       97.66170       54.41150103        0.57488472
       97.76139       55.53071355        0.52772251
       97.86109       57.11104431        0.48406773
       97.96078       57.95414558        0.49835235
       98.06047       59.29511685        0.70032721
       98.16017       56.79872575        0.60905506
       98.25986       58.26213602        0.58935216
       98.35956       59.27099240        0.56129608
       98.45925       60.78606311        0.53070465
       98.55894       65.37519746        0.71850838
       98.65864       66.38530551        0.62134193
       98.75833       68.49212198        0.58991514
       98.85802       72.29362535        0.56626402
       98.95772       75.32007975        0.57443678
       99.05741       74.05625348        0.79056788
       99.15710       77.61605181        0.69646175
       99.25680       80.57181027        0.68781530
       99.35649       82.64252320        0.66369163
       99.45618       84.97020169        0.62740057
       99.55588       86.99927259        0.84856794
       99.65557       88.17067061        0.70489704
       99.75526       88.77935090        0.66302275
       99.85496       87.15361821        0.62507116
       99.95465       85.32566766        0.60615640
      100.05434       88.62048752        0.88052981
      100.15404       86.46960616        0.73233851
      100.25373       84.63280360        0.71561597
      100.35342       84.99521079        0.71438805
      100.45312       82.14206008        0.64053135
      100.55281       79.74284668        0.82856067
      100.65250       76.64608007        0.66140677
      100.75220       72.82177990        0.59677632
      100.85189       69.69983851        0.55756394
      100.95158       68.75978855        0.53890755
      101.05128       69.09728757        0.77024891
      101.15097       68.64556989        0.63445992
      101.25066       71.12292516        0.63833771
      101.35036       73.76476497        0.65601942
      101.45005       73.55497084        0.61599675
      101.54974       75.01697053        0.77502744
      101.64944       76.41348380        0.63833793
      101.74913       80.48099418        0.61768469
      101.84882       84.22347199        0.61548346
      101.94852       85.70303449        0.65416538
      102.04821       88.39040441        0.80054904
      102.14791       89.02056863        0.72412393
      102.24760       90.97232168        0.72608008
      102.34729       88.46327854        0.71276860
      102.44699       89.67679299        0.73026980
      102.54668       90.84100507        0.77139870
      102.64637       92.00842230        0.69350511
      102.74607       93.67688191        0.66662407
      102.84576       93.74146057        0.65419841
      102.94545       95.12207815        0.75074362
      103.04515       92.29450033        0.78247636
      103.14484       91.98543178        0.72980817
      103.24453       87.65793814        0.70092270
      103.34423       85.52195101        0.68647420
      103.44392       85.56558569        0.74380415
      103.54361       84.91431967        0.71973090
      103.64331       84.19889306        0.65230085
      103.74300       83.58894862        0.61988451
      103.84269       80.43539859        0.59722890
      103.94239       79.28196551        0.71239590
      104.04208       78.50791227        0.68573425
      104.14177       79.10085761        0.66974119
      104.24147       79.11423512        0.66945870
      104.34116       80.57490655        0.67997579
      104.44085       79.14441974        0.76521300
      104.54055       80.69598904        0.69976154
      104.64024       79.69520381        0.65356791
      104.73993       77.10711405        0.61319254
      104.83963       74.30622109        0.57966321
      104.93932       72.33706061        0.69311367
      105.03901       70.37779464        0.64396191
      105.13871       69.47325734        0.61596345
      105.23840       68.00775295        0.60892802
      105.33809       65.79771212        0.60225781
      105.43779       63.72663473        0.68938770
      105.53748       64.12914558        0.62022878
      105.63717       61.33998246        0.55574359
      105.73687       57.95147489        0.51377483
      105.83656       56.86006276        0.49580332
      105.93626       56.07685956        0.62387937
      106.03595       55.84648465        0.56425355
      106.13564       54.44363917        0.53833622
      106.23534       53.70357134        0.54117926
      106.33503       52.91189229        0.54252768
      106.43472       51.89655837        0.63509594
      106.53442       50.79253153        0.54639721
      106.63411       50.37568898        0.49427113
      106.73380       51.66584658        0.47718824
      106.83350       51.93756429        0.47132067
      106.93319       53.57946519        0.62074061
      107.03288       53.38182085        0.54911879
      107.13258       55.28678182        0.54260206
      107.23227       55.76635550        0.55290523
      107.33196       55.86219123        0.55187040
      107.43166       57.53318068        0.67313556
      107.53135       58.09413147        0.58366173
      107.63104       60.32519097        0.54177832
      107.73074       64.29765758        0.53699849
      107.83043       65.98164955        0.53726531
      107.93012       69.12572950        0.72786259
      108.02982       69.06524822        0.63678308
      108.12951       68.75976648        0.60418204
      108.22920       69.35529733        0.59712457
      108.32890       71.77570860        0.60191460
      108.42859       72.85934879        0.76981206
      108.52828       72.72275389        0.65236404
      108.62798       74.98761200        0.60091030
      108.72767       74.88334236        0.57636265
      108.82736       75.20448277        0.59035659
      108.92706       73.87423780        0.74087032
      109.02675       72.24677441        0.64077842
      109.12644       72.09070601        0.62471582
      109.22614       72.50045854        0.62702601
      109.32583       72.43171684        0.68293128
      109.42552       71.59829520        0.71610538
      109.52522       69.88795312        0.63811612
      109.62491       67.79940544        0.59760254
      109.72461       64.25547210        0.55586874
      109.82430       62.78664844        0.51315506
      109.92399       61.07831434        0.65786311
      110.02369       59.56812159        0.56878015
      110.12338       59.10368880        0.56282165
      110.22307       58.36485836        0.55503604
      110.32277       57.94957640        0.56472122
      110.42246       57.91319105        0.68641659
      110.52215       57.05085988        0.57693952
      110.62185       56.48684137        0.54099376
      110.72154       55.86322445        0.50187317
      110.82123       56.06841716        0.51928520
      110.92093       57.64774198        0.61429498
      111.02062       57.47775137        0.56666490
      111.12031       58.91003288        0.57810875
      111.22001       60.33411252        0.57423622
      111.31970       61.42553489        0.62893535
      111.41939       61.69944878        0.65228265
      111.51909       62.60102150        0.59626855
      111.61878       62.53899872        0.56141099
      111.71847       65.89387644        0.53646690
      111.81817       68.61422461        0.59443118
      111.91786       71.06876381        0.63692576
      112.01755       72.67205124        0.62907171
      112.11725       75.44144192        0.64610882
      112.21694       77.39938034        0.65172009
      112.31663       77.08616780        0.71666995
      112.41633       80.65309931        0.72059539
      112.51602       80.90500614        0.66464345
      112.61571       84.44167144        0.64812205
      112.71541       86.86830748        0.61975452
      112.81510       88.02431429        0.69966091
      112.91479       89.54928151        0.71904649
      113.01449       89.40687567        0.70354988
      113.11418       88.39797774        0.69711026
      113.21387       88.63935059        0.69491457
      113.31357       89.30763380        0.77474891
      113.41326       89.92255237        0.73888884
      113.51296       89.90724858        0.69497510
      113.61265       91.13274714        0.67527789
      113.71234       89.46925965        0.63891078
      113.81204       87.90594334        0.72534234
      113.91173       85.72405374        0.69383297
      114.01142       84.38854424        0.68131687
      114.11112       82.74290192        0.67409268
      114.21081       81.59673908        0.67411664
      114.31050       81.95207114        0.76618449
      114.41020       80.44831249        0.70128983
      114.50989       78.21583174        0.64710004
      114.60958       76.20575523        0.61789600
      114.70928       73.97435694        0.58693192
      114.80897       72.39862586        0.65838200
      114.90866       71.69484354        0.61788673
      115.00836       69.89000960        0.60701931
      115.10805       71.39076133        0.61700336
      115.20774       71.71517551        0.62779717
      115.30744       72.31725461        0.72392066
      115.40713       73.14464658        0.65953230
      115.50682       73.18260566        0.62281501
      115.60652       75.11694341        0.60833536
      115.70621       73.96099096        0.58002252
      115.80590       77.86960891        0.69476008
      115.90560       79.09386679        0.63477184
      116.00529       83.78605062        0.66115205
      116.10498       87.27591713        0.68223998
      116.20468       94.10915906        0.72555933
      116.30437       97.22960463        0.87960303
      116.40406      101.13047709        0.78183511
      116.50376      105.59285826        0.75552965
      116.60345      111.73460302        0.74682566
      116.70314      122.09245613        0.75832412
      116.80284      129.16569977        0.92787849
      116.90253      134.37297096        0.85208165
      117.00222      141.65362663        0.86900772
      117.10192      144.65684700        0.90215600
      117.20161      150.07963243        0.93094493
      117.30131      152.45963087        1.12323558
      117.40100      156.87488905        0.95859106
      117.50069      161.13279804        0.92336255
      117.60039      167.64058428        0.90231031
      117.70008      172.97037120        0.88871462
      117.79977      178.64982193        1.10780895
      117.89947      178.17337433        0.96168992
      117.99916      181.39082582        0.98243095
      118.09885      182.05698464        1.00279811
      118.19855      181.54185906        1.04874154
      118.29824      184.68917296        1.16022570
      118.39793      180.80138977        1.04157565
      118.49763      181.35791303        0.98446835
      118.59732      180.50475117        0.94811106
      118.69701      174.90706620        0.97134593
      118.79671      171.09427938        1.03667484
      118.89640      165.67796764        0.95026667
      118.99609      160.03912662        0.93207675
      119.09579      155.43766422        0.92857014
      119.19548      151.01835983        0.99934409
      119.29517      147.70279702        1.02621070
      119.39487      144.18852772        0.93151881
      119.49456      138.58885268        0.85980580
      119.59425      131.41059159        0.81211029
      119.69395      128.32723310        0.84623276
      119.79364      126.03247882        0.84721340
      119.89333      120.39694189        0.80064270
      119.99303      120.14597918        0.78086399
      120.09272      120.06306960        0.79837381
      120.19241      118.70230485        0.89208193
      120.29211      117.61288514        0.87876219
      120.39180      115.70440186        0.83127779
      120.49149      115.25037868        0.77155222
      120.59119      112.81797942        0.74062492
      120.69088      111.34810705        0.79187764
      120.79057      114.19604096        0.78510522
      120.89027      113.66910781        0.76894102
      120.98996      114.80486358        0.76698214
      121.08966      115.48313378        0.77509243
      121.18935      115.21958871        0.88740260
      121.28904      114.89589164        0.86364348
      121.38874      117.50440096        0.82628397
      121.48843      114.47812493        0.76992084
      121.58812      117.36486884        0.74387593
      121.68782      117.17940935        0.82341100
      121.78751      119.77843302        0.79363518
      121.88720      119.84827105        0.78372586
      121.98690      117.86731254        0.78278198
      122.08659      118.24254661        0.79977884
      122.18628      117.51730195        0.92482711
      122.28598      114.54004261        0.85817603
      122.38567      114.41293594        0.82143067
      122.48536      113.60351761        0.77415871
      122.58506      111.64982119        0.72663630
      122.68475      108.13005328        0.80984159
      122.78444      106.60971982        0.75697913
      122.88414      103.09580242        0.73763821
      122.98383      101.40754618        0.74634836
      123.08352       98.84882782        0.73025207
      123.18322       97.27637754        0.84467652
      123.28291       95.65985953        0.76106626
      123.38260       94.90501622        0.73170772
      123.48230       95.41068496        0.70716661
      123.58199       92.53819229        0.65062379
      123.68168       92.26077624        0.74128030
      123.78138       90.15320644        0.66086526
      123.88107       88.91043940        0.64098359
      123.98076       85.22068307        0.63874641
      124.08046       84.29020954        0.62845626
      124.18015       84.56550293        0.71251979
      124.27984       84.28940791        0.63729798
      124.37954       81.59007328        0.59139258
      124.47923       79.49503968        0.56968288
      124.57893       74.43124863        0.58677806
