        5.04651       54.42487195        1.13454617
        5.14621       53.53054630        1.08423242
        5.24590       55.34492386        1.08698584
        5.34559       52.81125268        0.97343059
        5.44529       51.67100121        1.04730216
        5.54498       51.52186090        0.87967241
        5.64467       50.26912835        0.86113049
        5.74437       49.77307589        0.77342048
        5.84406       48.64552383        0.77363178
        5.94375       49.08919192        0.77616978
        6.04345       47.67911806        0.74310162
        6.14314       49.18063748        0.69120349
        6.24283       50.13223125        0.72101413
        6.34253       48.61368522        0.67702490
        6.44222       48.28007909        0.71039142
        6.54191       48.02613960        0.67118492
        6.64161       48.73748264        0.64060993
        6.74130       48.52201797        0.64175015
        6.84099       48.37362452        0.63611243
        6.94069       48.35196060        0.64554397
        7.04038       48.58101260        0.59731719
        7.14007       46.99138900        0.58608377
        7.23977       47.79339403        0.58081083
        7.33946       47.37923499        0.58709862
        7.43915       46.83043917        0.57601723
        7.53885       47.41508496        0.56896543
        7.63854       46.27513967        0.53712125
        7.73823       47.50563753        0.56521221
        7.83793       47.39530552        0.54631645
        7.93762       45.43372758        0.55777897
        8.03732       47.19292663        0.50997912
        8.13701       45.87329813        0.50041416
        8.23670       46.88926822        0.51315462
        8.33640       46.74375744        0.51248553
        8.43609       46.63782401        0.53516510
        8.53578       45.94031558        0.49467353
        8.63548       46.26575252        0.49074454
        8.73517       46.10232627        0.48052662
        8.83486       47.32166945        0.48812868
        8.93456       47.28466914        0.48542862
        9.03425       46.50226062        0.46723558
        9.13394       46.86308476        0.46995730
        9.23364       45.40096273        0.46920275
        9.33333       46.86419765        0.48653315
        9.43302       46.40314410        0.48427533
        9.53272       46.00882223        0.46588956
        9.63241       46.46605685        0.48147083
        9.73210       46.81472099        0.48233434
        9.83180       46.40550277        0.50035195
        9.93149       46.42831782        0.49689449
       10.03118       47.53414468        0.48386058
       10.13088       46.58473835        0.46744914
       10.23057       46.76841760        0.49049421
       10.33026       46.57189611        0.50592509
       10.42996       46.62702619        0.49929324
       10.52965       46.13769751        0.48095721
       10.62934       46.80566101        0.48564644
       10.72904       47.52659876        0.49667195
       10.82873       46.86583877        0.49066562
       10.92842       47.72029874        0.50349212
       11.02812       48.16688413        0.48195912
       11.12781       48.73553363        0.50223489
       11.22750       48.66602776        0.50687061
       11.32720       50.52583394        0.53052776
       11.42689       50.84410905        0.51376003
       11.52658       51.03694169        0.50861587
       11.62628       53.17118706        0.52496853
       11.72597       55.95310072        0.55022975
       11.82567       60.14933870        0.58677900
       11.92536       62.36273828        0.55934490
       12.02505       68.15213672        0.58804140
       12.12475       73.93733262        0.61254407
       12.22444       81.66743932        0.68353540
       12.32413       95.45871858        0.75200281
       12.42383      105.48649353        0.75154681
       12.52352      123.79384365        0.81151756
       12.62321      145.99972101        0.90949836
       12.72291      171.90958987        0.96419772
       12.82260      197.98686795        1.12921949
       12.92229      218.76613140        1.08128457
       13.02199      246.74069486        1.14382957
       13.12168      273.56749204        1.22986754
       13.22137      300.70871230        1.33610151
       13.32107      326.65732051        1.44229991
       13.42076      347.25112032        1.43510429
       13.52045      367.60363022        1.49827967
       13.62015      366.05039890        1.44840377
       13.71984      349.39592600        1.47139636
       13.81953      318.94692576        1.42380564
       13.91923      281.78849846        1.25096672
       14.01892      220.45209215        1.06820141
       14.11861      167.43960384        0.96414791
       14.21831      132.94151751        0.85582906
       14.31800      108.18624139        0.80993428
       14.41769       83.09727274        0.68102406
       14.51739       69.90410286        0.60820009
       14.61708       59.79460565        0.56303616
       14.71677       53.22871322        0.53933029
       14.81647       51.78359418        0.55714994
       14.91616       49.89409240        0.50277390
       15.01585       48.74151378        0.50579339
       15.11555       48.11862767        0.50832147
       15.21524       47.68540607        0.52150041
       15.31493       47.84900167        0.53500690
       15.41463       47.97477149        0.51869980
       15.51432       46.51019958        0.49477065
       15.61402       47.08851271        0.51049479
       15.71371       46.79397025        0.50537430
       15.81340       47.38420368        0.52909677
       15.91310       47.04247534        0.51221272
       16.01279       46.92344087        0.48980761
       16.11248       46.45757344        0.50041736
       16.21218       46.63842787        0.51530127
       16.31187       46.49728022        0.51576636
       16.41156       48.11993299        0.51506378
       16.51126       47.78288883        0.52190463
       16.61095       48.15571413        0.50522743
       16.71064       49.67258979        0.52948514
       16.81034       49.83352277        0.53196196
       16.91003       51.65166853        0.52612617
       17.00972       54.02301357        0.51675443
       17.10942       56.87856454        0.56070202
       17.20911       60.05514737        0.58154672
       17.30880       64.42742153        0.60802210
       17.40850       68.07199983        0.62521503
       17.50819       72.24707772        0.62586525
       17.60788       75.39774867        0.65956955
       17.70758       75.94852890        0.66476413
       17.80727       73.97137637        0.66392846
       17.90696       70.18379129        0.60426568
       18.00666       67.36310736        0.60210480
       18.10635       62.90039313        0.56549246
       18.20604       59.85203737        0.60482859
       18.30574       57.85309304        0.56654253
       18.40543       54.80272791        0.53748001
       18.50512       53.29173135        0.54660405
       18.60482       52.78676703        0.53542949
       18.70451       51.75017941        0.56013696
       18.80420       51.23247408        0.52352349
       18.90390       50.01455353        0.51163345
       19.00359       48.48929660        0.49047324
       19.10328       47.99034576        0.51619362
       19.20298       47.39393028        0.52888323
       19.30267       46.89646022        0.50518104
       19.40237       46.04110445        0.49481416
       19.50206       45.91504064        0.50654871
       19.60175       44.55967014        0.49330459
       19.70145       46.23571805        0.52706759
       19.80114       44.83191638        0.49212466
       19.90083       45.20118292        0.47747850
       20.00053       45.38587060        0.48695808
       20.10022       47.08082752        0.49979826
       20.19991       46.90961326        0.53335163
       20.29961       47.58801452        0.50905450
       20.39930       49.11354291        0.53291314
       20.49899       49.87011015        0.52774201
       20.59869       51.12388614        0.54422268
       20.69838       52.03839346        0.56940637
       20.79807       52.67651786        0.54647988
       20.89777       53.71950433        0.53947603
       20.99746       54.96211765        0.55122405
       21.09715       57.06019184        0.59180767
       21.19685       56.52996361        0.58592762
       21.29654       58.16924249        0.57996157
       21.39623       57.72643227        0.57773592
       21.49593       55.56183902        0.55849023
       21.59562       52.86776554        0.55764029
       21.69531       50.75226337        0.56808813
       21.79501       47.97940777        0.50504850
       21.89470       46.77729593        0.48735860
       21.99439       45.64272732        0.50172388
       22.09409       46.22789484        0.50623247
       22.19378       45.40388338        0.53272494
       22.29347       46.05095071        0.49972943
       22.39317       45.05285452        0.50700115
       22.49286       47.18733837        0.51864983
       22.59255       47.24875796        0.52509521
       22.69225       48.77801491        0.56237874
       22.79194       50.93377049        0.51630162
       22.89163       55.45868662        0.52862819
       22.99133       59.05031876        0.56095230
       23.09102       63.46863344        0.60443578
       23.19072       66.09065739        0.61852929
       23.29041       70.60297332        0.63182691
       23.39010       71.94084751        0.64461511
       23.48980       68.90658040        0.63283432
       23.58949       66.41586036        0.62935306
       23.68918       62.65608394        0.64238295
       23.78888       57.55368087        0.54820241
       23.88857       53.43717877        0.53476497
       23.98826       49.88642083        0.52790928
       24.08796       47.91561614        0.50712253
       24.18765       44.71137587        0.52461038
       24.28734       45.47982968        0.50382172
       24.38704       45.55734551        0.51268558
       24.48673       43.66687578        0.49997630
       24.58642       44.77595963        0.52313873
       24.68612       44.07832964        0.51829873
       24.78581       44.31497439        0.47908405
       24.88550       44.75358149        0.48128948
       24.98520       45.07022704        0.50088250
       25.08489       44.96516037        0.51027854
       25.18458       45.21091779        0.52244169
       25.28428       46.55286338        0.51107765
       25.38397       48.20005689        0.51766270
       25.48366       49.90332383        0.53003736
       25.58336       53.54324655        0.57261046
       25.68305       60.57772982        0.59807202
       25.78274       68.68019991        0.60183437
       25.88244       83.98960072        0.68403793
       25.98213      105.02606178        0.77373914
       26.08182      126.96634002        0.87598113
       26.18152      149.79549609        0.97783285
       26.28121      177.66366038        1.01156514
       26.38090      192.45200377        1.06400271
       26.48060      199.16584121        1.11345298
       26.58029      187.19577813        1.12411909
       26.67998      172.35277309        1.01662090
       26.77968      149.18974001        0.93146766
       26.87937      118.63939458        0.81495432
       26.97907       94.14188347        0.71717397
       27.07876       81.96898551        0.71920541
       27.17845       76.76769009        0.66458425
       27.27815       79.60817286        0.66122744
       27.37784       81.39846984        0.69486880
       27.47753       85.00221705        0.70001857
       27.57723       85.02702898        0.73341545
       27.67692       83.78945172        0.71050333
       27.77661       76.78698649        0.64844409
       27.87631       70.08796827        0.60856723
       27.97600       61.69796525        0.58305490
       28.07569       56.96568075        0.59250309
       28.17539       52.80707395        0.54574737
       28.27508       50.29914956        0.53264094
       28.37477       49.08605360        0.53859014
       28.47447       48.49917845        0.53112548
       28.57416       49.47134307        0.58003492
       28.67385       51.23059710        0.52530081
       28.77355       52.73886085        0.52349351
       28.87324       54.27767675        0.54536254
       28.97293       56.36586266        0.55725076
       29.07263       57.18112170        0.61189428
       29.17232       57.35803622        0.55928744
       29.27201       55.19163840        0.55855270
       29.37171       52.72674068        0.56137494
       29.47140       50.65789789        0.54370951
       29.57109       48.68565346        0.56502491
       29.67079       47.38889506        0.50738354
       29.77048       46.84719198        0.50559832
       29.87017       45.74980287        0.48974141
       29.96987       46.14291529        0.51574439
       30.06956       45.19278343        0.52649099
       30.16925       45.51806554        0.49753254
       30.26895       47.63081653        0.51107990
       30.36864       48.08368160        0.52193626
       30.46833       50.31481312        0.53952617
       30.56803       51.58641823        0.57720068
       30.66772       54.22773875        0.55095467
       30.76742       58.03570483        0.55892299
       30.86711       62.05256018        0.58986145
       30.96680       62.59813375        0.59592545
       31.06650       61.47795357        0.61912361
       31.16619       61.13640860        0.58047347
       31.26588       59.76973599        0.57036983
       31.36558       56.94783202        0.56376098
       31.46527       57.93372111        0.59175756
       31.56496       59.37322719        0.60883438
       31.66466       61.89774067        0.58160080
       31.76435       69.57123926        0.61675568
       31.86404       77.06166672        0.64136490
       31.96374       84.56388468        0.68829321
       32.06343       87.92660753        0.72670535
       32.16312       86.74926382        0.67822774
       32.26282       82.64628337        0.67772091
       32.36251       77.40391292        0.68154162
       32.46220       72.84041034        0.67251209
       32.56190       71.43375358        0.67766139
       32.66159       68.60126949        0.63035625
       32.76128       66.04972968        0.60438473
       32.86098       65.38871653        0.61031594
       32.96067       63.59198044        0.60922494
       33.06036       61.35375787        0.60909176
       33.16006       58.69510482        0.56079342
       33.25975       58.07651179        0.57589126
       33.35944       56.00806561        0.56840435
       33.45914       55.96750434        0.58980664
       33.55883       57.44283896        0.59908054
       33.65852       59.55759864        0.56902775
       33.75822       64.49966744        0.59162138
       33.85791       72.91169577        0.63245076
       33.95760       81.24518780        0.68824754
       34.05730       91.34557153        0.72383778
       34.15699      104.49395013        0.76344138
       34.25668      121.40207244        0.82215093
       34.35638      147.36208047        0.93283568
       34.45607      187.64327602        1.11524981
       34.55577      228.47456788        1.17934487
       34.65546      292.18355419        1.29023148
       34.75515      361.30684364        1.47537686
       34.85485      418.69364061        1.58779224
       34.95454      441.02881078        1.68552724
       35.05423      432.06011532        1.72359335
       35.15393      391.76756345        1.53353584
       35.25362      321.06000465        1.39693986
       35.35331      254.09894991        1.26382897
       35.45301      192.41730882        1.13777458
       35.55270      148.23653196        0.96625673
       35.65239      110.81811029        0.80234423
       35.75209       90.94972411        0.71934954
       35.85178       80.07983423        0.67292060
       35.95147       73.11737287        0.65739346
       36.05117       70.00520211        0.62969829
       36.15086       66.16412727        0.58825790
       36.25055       63.52788166        0.60196112
       36.35025       61.80079530        0.60517704
       36.44994       59.78670191        0.60692621
       36.54963       58.75491946        0.57747399
       36.64933       58.48964863        0.56754642
       36.74902       55.23124754        0.55696074
       36.84871       53.99086270        0.54658123
       36.94841       52.49515196        0.58269890
       37.04810       51.61956599        0.50941344
       37.14779       49.66937737        0.50977228
       37.24749       49.10080845        0.52089391
       37.34718       47.38989744        0.52463655
       37.44687       47.02507493        0.56135450
       37.54657       47.54456617        0.51534926
       37.64626       47.04935631        0.51064879
       37.74595       47.43294770        0.50474311
       37.84565       47.43421588        0.53407107
       37.94534       46.19607548        0.53681982
       38.04503       46.58735474        0.48727520
       38.14473       46.49817052        0.49157158
       38.24442       47.45711738        0.50577512
       38.34412       48.00600208        0.53188063
       38.44381       47.46618311        0.57182197
       38.54350       47.93322568        0.51227188
       38.64320       49.17992506        0.51743012
       38.74289       51.10767549        0.53455113
       38.84258       53.21514780        0.54697981
       38.94228       55.93104128        0.58844371
       39.04197       59.76992870        0.54887235
       39.14166       63.30099036        0.58793987
       39.24136       68.05624049        0.60846807
       39.34105       70.39601374        0.64066907
       39.44074       70.87212698        0.70123303
       39.54044       71.56237635        0.63011664
       39.64013       69.62187086        0.61941311
       39.73982       67.05316853        0.61007830
       39.83952       62.81517146        0.58607253
       39.93921       61.31800856        0.61382080
       40.03890       58.48603993        0.54847526
       40.13860       57.27948409        0.54197505
       40.23829       57.26547331        0.56107925
       40.33798       55.05138726        0.56705733
       40.43768       56.12858866        0.59918455
       40.53737       57.09400296        0.56097636
       40.63706       57.05056014        0.57253239
       40.73676       58.29144381        0.57793016
       40.83645       59.61358543        0.58946095
       40.93614       62.54277721        0.61419382
       41.03584       66.34910942        0.59570980
       41.13553       77.83345626        0.64716104
       41.23522       93.34253728        0.72771911
       41.33492      115.11647818        0.84886277
       41.43461      141.27600702        0.97442328
       41.53430      162.75516861        0.98252377
       41.63400      190.86272947        1.09176472
       41.73369      209.67518873        1.12239306
       41.83338      215.58589260        1.16946593
       41.93308      220.21292302        1.17227280
       42.03277      225.49371069        1.08506886
       42.13247      250.21471992        1.20564881
       42.23216      297.25589702        1.32514742
       42.33185      355.26586791        1.56702307
       42.43155      415.95534577        1.68349914
       42.53124      471.91881715        1.74800220
       42.63093      512.43839580        1.83363891
       42.73063      528.25562459        1.87349368
       42.83032      517.26207581        1.88434247
       42.93001      487.14146276        1.75384813
       43.02971      427.29263658        1.54066059
       43.12940      348.23293870        1.40494402
       43.22909      272.53860776        1.29336248
       43.32879      211.21785571        1.18937014
       43.42848      161.55772204        1.01009068
       43.52817      119.30056722        0.82520685
       43.62787       92.05075663        0.71941987
       43.72756       74.73293668        0.66174227
       43.82725       67.69978172        0.65694034
       43.92695       61.67663474        0.56804697
       44.02664       57.74407260        0.54665549
       44.12633       56.35317077        0.56003317
       44.22603       54.68282116        0.57404933
       44.32572       54.40287153        0.60344623
       44.42541       54.73372707        0.57792399
       44.52511       53.07106441        0.55361230
       44.62480       55.39430933        0.57382612
       44.72449       56.92060561        0.56383919
       44.82419       61.63988876        0.65892034
       44.92388       66.33899223        0.57054686
       45.02357       73.63914908        0.60674907
       45.12327       89.29033021        0.68990698
       45.22296      109.13182963        0.78523941
       45.32265      131.10218551        0.95524934
       45.42235      154.29900415        0.94685342
       45.52204      179.87853076        1.01581803
       45.62174      202.95822039        1.10222091
       45.72143      217.23452609        1.14246418
       45.82112      222.86327228        1.26763669
       45.92082      222.14315858        1.07424656
       46.02051      220.79930008        1.09366382
       46.12020      217.19722131        1.08776330
       46.21990      210.49316792        1.12432883
       46.31959      199.50095872        1.18025352
       46.41928      184.96779002        1.04755816
       46.51898      162.37840907        0.98373056
       46.61867      133.62274174        0.88399538
       46.71836      108.52991366        0.81395394
       46.81806       89.89864288        0.76587093
       46.91775       75.80223716        0.61161171
       47.01744       66.92016002        0.58749837
       47.11714       65.74239511        0.59548319
       47.21683       71.20051487        0.63852869
       47.31652       78.43963194        0.73200629
       47.41622       90.39361200        0.74193843
       47.51591      103.64935901        0.79755498
       47.61560      118.08163175        0.84596446
       47.71530      131.08283576        0.90262770
       47.81499      144.12015201        0.97210816
       47.91468      155.78853338        0.88564183
       48.01438      166.47839907        0.91738595
       48.11407      169.19164555        0.95978116
       48.21376      167.99667721        0.99834084
       48.31346      164.46860126        1.02249007
       48.41315      156.06313687        0.92728561
       48.51284      144.80581406        0.92146640
       48.61254      128.12301271        0.86110033
       48.71223      110.45204611        0.81184160
       48.81192       95.46808188        0.75124135
       48.91162       79.40467768        0.61261151
       49.01131       66.98310621        0.58121203
       49.11100       59.63014542        0.56745453
       49.21070       54.82479529        0.57078917
       49.31039       51.66106315        0.56993728
       49.41009       50.31839978        0.53124822
       49.50978       48.84353664        0.53409883
       49.60947       48.02487379        0.53340497
       49.70917       48.70685163        0.55716344
       49.80886       48.45139668        0.54081019
       49.90855       48.87719769        0.49483990
       50.00825       49.94658225        0.51088423
       50.10794       50.23028116        0.52401876
       50.20763       51.07702213        0.55215457
       50.30733       50.40617824        0.57449773
       50.40702       53.67159556        0.55623599
       50.50671       54.47405353        0.56210254
       50.60641       56.55163677        0.57373877
       50.70610       56.86934363        0.59204454
       50.80579       55.74368802        0.57830814
       50.90549       57.18460289        0.52822117
       51.00518       55.20975639        0.52344276
       51.10487       55.53129889        0.54268196
       51.20457       54.75715682        0.57361562
       51.30426       55.29222164        0.57346610
       51.40395       56.28426450        0.55477095
       51.50365       57.63017574        0.56790845
       51.60334       58.63723326        0.58426393
       51.70303       60.11665213        0.62839451
       51.80273       60.21412725        0.57688438
       51.90242       61.11203259        0.54307676
       52.00211       61.34554847        0.54670849
       52.10181       62.69091588        0.57029555
       52.20150       62.01091665        0.62456218
       52.30119       62.38117317        0.60347217
       52.40089       62.30497651        0.59365191
       52.50058       61.39199395        0.60032429
       52.60027       60.27840759        0.60286358
       52.69997       61.20746389        0.66586334
       52.79966       62.26588651        0.56473474
       52.89935       66.09128007        0.56176115
       52.99905       74.86374940        0.60854155
       53.09874       87.50946955        0.68054865
       53.19844       98.56153449        0.82851343
       53.29813      110.18255228        0.77988304
       53.39782      122.52209302        0.85236625
       53.49752      131.78404543        0.88923756
       53.59721      140.30302310        0.91800652
       53.69690      145.01357214        1.02476814
       53.79660      148.80754046        0.87009559
       53.89629      146.89974901        0.85490376
       53.99598      146.12702249        0.87343395
       54.09568      134.05846971        0.87195888
       54.19537      125.53480350        0.91904500
       54.29506      115.01119408        0.80682657
       54.39476      106.25529048        0.78045333
       54.49445       97.80040541        0.74828266
       54.59414       91.67642114        0.73478268
       54.69384       89.99733153        0.77645605
       54.79353       88.23088145        0.65908556
       54.89322       84.93807148        0.64399106
       54.99292       81.00893268        0.64691538
       55.09261       75.12882283        0.64724281
       55.19230       70.44023037        0.67250528
       55.29200       65.61624802        0.60363225
       55.39169       62.23319439        0.60623582
       55.49138       58.08182210        0.58308662
       55.59108       57.86961932        0.60067041
       55.69077       55.19034877        0.60173293
       55.79046       55.19034611        0.52608368
       55.89016       54.64280876        0.52216743
       55.98985       57.09665916        0.53741286
       56.08954       59.41815382        0.56652118
       56.18924       65.40310188        0.64209886
       56.28893       72.51826807        0.61953553
       56.38862       83.06314955        0.68703449
       56.48832       94.09183398        0.74511799
       56.58801      105.01475248        0.81135285
       56.68770      112.59077392        0.86811971
       56.78740      117.19005307        0.75854663
       56.88709      114.80426867        0.75797470
       56.98679      106.62490509        0.73015625
       57.08648       95.53252692        0.73133678
       57.18617       86.59335948        0.71993228
       57.28587       75.33186271        0.62624495
       57.38556       67.29373380        0.62926026
       57.48525       60.60380013        0.60797081
       57.58495       56.36561971        0.59934722
       57.68464       53.57088096        0.58912188
       57.78433       53.62642798        0.51563996
       57.88403       52.24767444        0.51477892
       57.98372       52.01645141        0.52179671
       58.08341       52.47869334        0.56673000
       58.18311       52.79644753        0.58151210
       58.28280       53.50791940        0.55146590
       58.38249       53.40611965        0.57567143
       58.48219       53.04910869        0.58609694
       58.58188       52.71845156        0.59062346
       58.68157       52.03947798        0.57495402
       58.78127       53.42287796        0.50967675
       58.88096       53.36998278        0.50190331
       58.98065       54.92017980        0.52866863
       59.08035       56.15165866        0.57052693
       59.18004       57.77934627        0.58723785
       59.27973       59.00972318        0.56003447
       59.37943       62.29490665        0.59471107
       59.47912       66.07224696        0.63798566
       59.57881       71.57219033        0.69624677
       59.67851       77.65399696        0.67681501
       59.77820       84.15331999        0.64838196
       59.87789       92.12818573        0.67686629
       59.97759       99.75968030        0.73769819
       60.07728      106.10560427        0.82472616
       60.17697      108.42070846        0.79447203
       60.27667      108.22187488        0.77167304
       60.37636      107.02457778        0.78211886
       60.47605      105.09723046        0.80830119
       60.57575      100.63445302        0.86621566
       60.67544       96.52956298        0.72838436
       60.77514       85.14661385        0.64913257
       60.87483       78.39449457        0.61011588
       60.97452       72.45502658        0.61732607
       61.07422       69.20681986        0.67740697
       61.17391       67.10720189        0.57761845
       61.27360       65.92979100        0.59273915
       61.37330       67.46884967        0.62202073
       61.47299       69.66130451        0.66007300
       61.57268       70.07670569        0.75290884
       61.67238       71.80246334        0.62133193
       61.77207       70.20052318        0.59817816
       61.87176       71.26743415        0.59610095
       61.97146       70.09807453        0.61365835
       62.07115       69.93743388        0.69419335
       62.17084       68.57746463        0.60211594
       62.27054       68.13269141        0.62573044
       62.37023       69.04485719        0.65510203
       62.46992       69.19486182        0.67830807
       62.56962       71.18103498        0.77296225
       62.66931       72.25437914        0.62748501
       62.76900       78.66398737        0.63884196
       62.86870       86.85700048        0.65753618
       62.96839       94.22872702        0.70757199
       63.06808       99.85129001        0.81130707
       63.16778      105.64880191        0.74147901
       63.26747      110.71545601        0.78611225
       63.36716      112.65650016        0.82314849
       63.46686      114.64824052        0.85554025
       63.56655      118.39702499        0.92418053
       63.66624      126.89552072        0.81432037
       63.76594      139.91011354        0.83231052
       63.86563      155.45810552        0.87680707
       63.96532      167.18977329        0.95326557
       64.06502      172.60120619        1.03853413
       64.16471      173.94061292        0.96457496
       64.26440      167.09163540        0.98315087
       64.36410      154.02375430        0.96104336
       64.46379      139.10022403        0.96362577
       64.56349      125.71381127        0.93043096
       64.66318      108.19507503        0.75338804
       64.76287       89.89294128        0.67624356
       64.86257       75.57336921        0.61765543
       64.96226       65.58762039        0.60171930
       65.06195       60.11177875        0.62232552
       65.16165       56.03131981        0.54162478
       65.26134       54.53735496        0.54672598
       65.36103       53.37411490        0.56426674
       65.46073       54.40698844        0.58852350
       65.56042       55.37093106        0.62020152
       65.66011       56.37786033        0.54577967
       65.75981       57.64887319        0.54649621
       65.85950       58.62817646        0.54769163
       65.95919       62.55576206        0.59260730
       66.05889       65.65011769        0.62826641
       66.15858       68.81726218        0.61198644
       66.25827       76.42798387        0.66781415
       66.35797       85.39125120        0.73639756
       66.45766       94.89896623        0.82607789
       66.55735      107.48176335        0.88064166
       66.65705      122.43992723        0.83570207
       66.75674      134.79947696        0.85607864
       66.85643      151.93303712        0.90094210
       66.95613      162.21349448        0.96946316
       67.05582      167.69629244        0.99395102
       67.15551      171.04622269        0.95579194
       67.25521      164.37392182        0.98244928
       67.35490      155.38502182        1.00424696
       67.45459      140.12395759        1.00341329
       67.55429      126.07458665        0.90997919
       67.65398      106.52759646        0.74749014
       67.75367       89.78616636        0.67882621
       67.85337       80.18143268        0.64839150
       67.95306       76.39588637        0.67635519
       68.05275       74.04907225        0.63026690
       68.15245       79.04870998        0.64611534
       68.25214       86.64107870        0.71883164
       68.35184       92.55986453        0.77502593
       68.45153       98.49451209        0.88093226
       68.55122      106.32921822        0.78947506
       68.65092      115.41051342        0.76773240
       68.75061      123.00936850        0.80174483
       68.85030      127.43954075        0.83235916
       68.95000      126.89172174        0.94158604
       69.04969      124.69749154        0.78802695
       69.14938      114.20833859        0.77419964
       69.24908      105.57659106        0.79388428
       69.34877       96.80974042        0.78519376
       69.44846       87.62611886        0.86522581
       69.54816       79.22835505        0.64060063
       69.64785       68.68856664        0.58706397
       69.74754       59.82210607        0.55256190
       69.84724       56.79762813        0.55218125
       69.94693       53.31141135        0.60338711
       70.04662       49.82418687        0.47940164
       70.14632       47.31373483        0.48557999
       70.24601       46.95027478        0.51789286
       70.34570       46.83560314        0.54734954
       70.44540       46.76243887        0.64439502
       70.54509       46.81761695        0.50469221
       70.64478       48.39078449        0.51251169
       70.74448       50.21469556        0.53052386
       70.84417       50.07090729        0.54971345
       70.94386       49.56297322        0.60030986
       71.04356       50.83994272        0.50322485
       71.14325       51.52949328        0.52653700
       71.24294       52.53080274        0.55945559
       71.34264       54.17776192        0.60261472
       71.44233       53.72291257        0.66957150
       71.54202       53.27004548        0.54276994
       71.64172       53.90188521        0.53115790
       71.74141       52.80263161        0.51607580
       71.84110       51.31508958        0.52650523
       71.94080       52.47747982        0.58030493
       72.04049       51.61649819        0.48705222
       72.14019       52.33391886        0.51103984
       72.23988       52.47319284        0.53543063
       72.33957       52.93255032        0.60073931
       72.43927       53.28361029        0.66352335
       72.53896       52.86093749        0.52984933
       72.63865       52.74977369        0.51734886
       72.73835       54.86205314        0.51619044
       72.83804       57.18320292        0.55671304
       72.93773       59.50093124        0.60345847
       73.03743       59.53188350        0.52394704
       73.13712       60.80075480        0.55852148
       73.23681       61.71504063        0.59126594
       73.33651       61.72809357        0.65067119
       73.43620       63.36722473        0.71426728
       73.53589       61.36759315        0.56683197
       73.63559       63.18152760        0.56629411
       73.73528       65.02897345        0.57208577
       73.83497       64.25205614        0.60279040
       73.93467       64.84638405        0.63773432
       74.03436       63.96822465        0.56047342
       74.13405       63.94329536        0.58418586
       74.23375       63.58779438        0.60678232
       74.33344       65.20528847        0.67661533
       74.43313       65.09084314        0.70146736
       74.53283       66.95367414        0.60465644
       74.63252       69.79366529        0.61317239
       74.73221       72.78238587        0.62341921
       74.83191       77.44532341        0.68271564
       74.93160       80.02893065        0.70213021
       75.03129       81.48383092        0.63000296
       75.13099       85.21269686        0.66772174
       75.23068       89.56088319        0.71452516
       75.33037       94.92932169        0.80930277
       75.43007       98.25011779        0.83563685
       75.52976      105.74166982        0.75388323
       75.62945      113.66440771        0.78190828
       75.72915      121.82205693        0.80731600
       75.82884      128.84833596        0.89492431
       75.92854      132.36140817        0.85194412
       76.02823      142.30290800        0.82981509
       76.12792      148.17120088        0.88586926
       76.22762      150.74205977        0.94310681
       76.32731      150.13178721        1.06286001
       76.42700      151.13141177        1.00665312
       76.52670      150.41204186        0.92637333
       76.62639      144.93729998        0.89707236
       76.72608      136.21752319        0.85403117
       76.82578      130.87857315        0.96376693
       76.92547      126.53274923        0.75849040
       77.02516      126.57589838        0.78628441
       77.12486      125.46826729        0.82219572
       77.22455      126.51647952        0.87924040
       77.32424      128.11034235        1.08721904
       77.42394      131.05913477        0.87846472
       77.52363      132.81529836        0.85479045
       77.62332      134.41242051        0.85618553
       77.72302      138.06379011        0.87020590
       77.82271      140.95414763        1.03164013
       77.92240      141.30525475        0.79099051
       78.02210      140.21889077        0.85006706
       78.12179      140.43678951        0.90866603
       78.22148      136.53224144        0.94683338
       78.32118      133.38800986        1.08539659
       78.42087      128.02969507        0.83617243
       78.52056      122.93828921        0.84546589
       78.62026      118.31409441        0.82230615
       78.71995      111.51592723        0.80013226
       78.81964      107.80833739        0.87824514
       78.91934       97.80365520        0.64710495
       79.01903       88.39303822        0.67341136
       79.11872       80.63842194        0.66851693
       79.21842       74.53756773        0.68494450
       79.31811       71.37876055        0.75460747
       79.41780       68.79860592        0.60071088
       79.51750       67.01846485        0.60225474
       79.61719       66.57635513        0.60198552
       79.71689       64.81966647        0.61651574
       79.81658       65.86226757        0.65888828
       79.91627       63.77539656        0.54938999
       80.01597       62.23411340        0.55767921
       80.11566       62.75668618        0.58547253
       80.21535       63.46531262        0.62944284
       80.31505       65.19250839        0.75859574
       80.41474       65.70573647        0.58525854
       80.51443       69.10693754        0.59793608
       80.61413       71.48463451        0.62855680
       80.71382       78.64030531        0.68281716
       80.81351       85.53936741        0.80114463
       80.91321       92.03700983        0.61345884
       81.01290      110.24270129        0.72694759
       81.11259      128.99711324        0.85128097
       81.21229      145.97101928        0.98206451
       81.31198      159.44273886        1.14726050
       81.41167      177.75674827        0.95106935
       81.51137      202.77753036        1.04896964
       81.61106      214.78590635        1.12917080
       81.71075      229.39938720        1.21036252
       81.81045      238.57193102        1.30936164
       81.91014      256.83268605        1.04742392
       82.00983      270.34543431        1.15082394
       82.10953      278.31293594        1.30768426
       82.20922      282.04440312        1.46474767
       82.30891      286.12798305        1.54786742
       82.40861      287.53000668        1.26205156
       82.50830      279.73614336        1.24005984
       82.60799      280.03858233        1.33659643
       82.70769      279.45286072        1.45292208
       82.80738      278.30090306        1.38510318
       82.90707      277.08464832        1.12213482
       83.00677      269.53107506        1.17796395
       83.10646      263.36134106        1.36896720
       83.20615      253.91713131        1.49420865
       83.30585      243.68643410        1.38470860
       83.40554      228.36366816        1.11200200
       83.50524      213.98634155        1.04821477
       83.60493      193.02997995        1.09334134
       83.70462      180.00147710        1.18828411
       83.80432      165.73344201        0.99433558
       83.90401      143.06696503        0.77227337
       84.00370      120.70882813        0.73728893
       84.10340      102.44891383        0.80931147
       84.20309       96.49765320        0.95269664
       84.30278       86.95618750        0.73436012
       84.40248       78.00873079        0.61296661
       84.50217       71.64303386        0.57567344
       84.60186       67.56205973        0.63169285
       84.70156       68.28511149        0.83114161
       84.80125       67.52004513        0.57532899
       84.90094       65.24800472        0.50785938
       85.00064       64.01714239        0.51817783
       85.10033       63.82914011        0.61232962
       85.20002       67.05664493        1.07703095
       85.29972       65.64435020        0.56198895
       85.39941       66.55063233        0.57700556
       85.49910       65.95922954        0.55856714
       85.59880       65.66850530        0.62667156
       85.69849       66.58614038        1.13310555
       85.79818       66.03196209        0.53194037
       85.89788       64.31326383        0.51227686
       85.99757       63.27783065        0.52201806
       86.09726       61.92376184        0.59276784
       86.19696       65.35783805        1.17033684
       86.29665       61.67343805        0.53765723
       86.39634       60.34422362        0.54093746
       86.49604       60.14303947        0.53184944
       86.59573       57.09660326        0.55184910
       86.69542       57.02518494        1.15306857
       86.79512       54.32641342        0.46696763
       86.89481       53.53158139        0.45694407
       86.99451       53.67513905        0.47428865
       87.09420       52.91050619        0.52511003
       87.19389       50.38607036        1.21330300
       87.29359       52.10609444        0.50019063
       87.39328       50.77386000        0.50031025
       87.49297       48.49639011        0.47448196
       87.59267       48.71146774        0.48490202
       87.69236       50.19832247        1.47332695
       87.79205       49.79941621        0.45710048
       87.89175       50.23053737        0.45541291
       87.99144       50.29997997        0.47488020
       88.09113       49.66040754        0.50146581
       88.19083       50.23312298        2.66914493
       88.29052       48.85633969        0.50045400
       88.39021       48.61805115        0.50253895
       88.48991       48.97036911        0.48406917
       88.58960       49.29134373        0.47033912
       88.68929       51.61542465        3.72997099
       88.78899       49.03996822        0.45280878
       88.88868       49.59245002        0.44544991
       88.98837       50.11777266        0.46579895
       89.08807       48.67392936        0.47006544
       89.18776       43.99642370        3.63334587
       89.28745       50.34521763        0.48586250
       89.38715       51.71761319        0.49761664
       89.48684       53.67104202        0.49624846
       89.58653       56.28300947        0.49808052
       89.68623       58.12946822        4.10484961
       89.78592       59.26854043        0.49689992
       89.88561       61.78470008        0.49759321
       89.98531       63.06792679        0.51561185
       90.08500       68.40644981        0.55744214
       90.18469       70.82716734        4.73264150
       90.28439       72.94751925        0.58836190
       90.38408       78.37070965        0.62064152
       90.48377       83.36758536        0.62862511
       90.58347       89.02065265        0.63998094
       90.68316       85.59162574        4.88529588
       90.78286       90.31290183        0.61716934
       90.88255       92.71549039        0.60870943
       90.98224       97.17456156        0.64524541
       91.08194       99.43796106        0.67439121
       91.18163      101.40674027        5.43627828
       91.28132       99.34273252        0.69400723
       91.38102       99.03300016        0.71127620
       91.48071       99.28575619        0.69473808
       91.58040       92.29528835        0.64704327
       91.68010       89.48350656        4.81764016
       91.77979       88.43711529        0.60761802
       91.87948       85.60314640        0.58828815
       91.97918       82.16065433        0.59812167
       92.07887       80.52594822        0.61665197
       92.17856       82.29376552        4.74127056
       92.27826       80.83872410        0.63814652
       92.37795       78.66470658        0.64420015
       92.47764       77.27403877        0.60596514
       92.57734       77.70045756        0.58951138
       92.67703       84.93767081        4.00588534
       92.77672       80.56233463        0.57882236
       92.87642       83.35249674        0.57779345
       92.97611       85.81125634        0.61242308
       93.07580       88.22653897        0.70903050
       93.17550       89.65951016        1.34437027
       93.27519       90.85669799        0.66349740
       93.37488       91.50886809        0.64734916
       93.47458       94.44265638        0.66520826
       93.57427       97.13836652        0.78032119
       93.67396       97.44604838        1.05626187
       93.77366       97.17274225        0.65338686
       93.87335       96.29494576        0.62119386
       93.97304       93.74694244        0.63846417
       94.07274       92.04624744        0.82112480
       94.17243       88.91296136        0.92034188
       94.27212       90.02302974        0.68988228
       94.37182       91.48018411        0.67794708
       94.47151       88.80805816        0.63940958
       94.57121       88.92219177        0.84442869
       94.67090       87.48170309        0.84705235
       94.77059       86.53771115        0.65480660
       94.87029       80.68840054        0.57438986
       94.96998       75.08927294        0.56058512
       95.06967       70.91525012        0.62756720
       95.16937       70.68199577        0.85763130
       95.26906       66.73590718        0.64334530
       95.36875       64.95965306        0.57577339
       95.46845       62.12135331        0.54085549
       95.56814       61.59068470        0.61963851
       95.66783       58.89493432        0.68041382
       95.76753       57.64760771        0.55616438
       95.86722       54.87572178        0.46134844
       95.96691       54.74335335        0.47794633
       96.06661       53.71516931        0.60637427
       96.16630       52.89856194        0.64161149
       96.26599       50.86844513        0.56484521
       96.36569       50.59108758        0.50541601
       96.46538       49.08636968        0.48033719
       96.56507       48.29504469        0.58798258
       96.66477       46.43652562        0.56163336
       96.76446       47.28456636        0.50652255
       96.86415       47.08346338        0.43779762
       96.96385       47.65492586        0.45495745
       97.06354       48.39924003        0.62006143
       97.16323       47.09368801        0.58469334
       97.26293       48.86748076        0.55974096
       97.36262       47.47304054        0.51076539
       97.46231       47.13649091        0.46819925
       97.56201       48.93883338        0.60713421
       97.66170       51.06888270        0.55726695
       97.76139       52.11062922        0.51150034
       97.86109       52.31766705        0.46345821
       97.96078       55.23171571        0.48683808
       98.06047       56.21124630        0.68229449
       98.16017       56.76311907        0.60956286
       98.25986       56.48483860        0.58078400
       98.35956       58.93059413        0.56029420
       98.45925       61.17088879        0.53303073
       98.55894       63.59661450        0.70926471
       98.65864       65.06789797        0.61571328
       98.75833       66.80363983        0.58309816
       98.85802       69.66977014        0.55627954
       98.95772       70.81074772        0.55718205
       99.05741       71.51831130        0.77745470
       99.15710       73.47667284        0.67792933
       99.25680       74.82464592        0.66293444
       99.35649       79.67977061        0.65209998
       99.45618       82.17557132        0.61740601
       99.55588       84.02294680        0.83445310
       99.65557       84.62946160        0.69096561
       99.75526       86.32594354        0.65426851
       99.85496       86.38629905        0.62294213
       99.95465       85.97709785        0.60922903
      100.05434       87.38003179        0.87515750
      100.15404       86.07995949        0.73147228
      100.25373       86.24229151        0.72341342
      100.35342       87.55262332        0.72620243
      100.45312       85.30808505        0.65386007
      100.55281       84.61618097        0.85519466
      100.65250       84.18712204        0.69487371
      100.75220       80.75347029        0.63001578
      100.85189       79.77182796        0.59821078
      100.95158       80.54887826        0.58513468
      101.05128       80.05306403        0.83158451
      101.15097       79.66037514        0.68555220
      101.25066       78.45733163        0.67206063
      101.35036       78.15909660        0.67656239
      101.45005       76.16131986        0.62781568
      101.54974       74.92503614        0.77542819
      101.64944       74.91896978        0.63262653
      101.74913       75.21697586        0.59728576
      101.84882       75.46797242        0.58240430
      101.94852       77.44752350        0.62169021
      102.04821       77.05671241        0.74686478
      102.14791       78.49989191        0.67953890
      102.24760       79.99538695        0.68036289
      102.34729       78.74977746        0.67214649
      102.44699       79.39735494        0.68671487
      102.54668       79.55272637        0.72130760
      102.64637       81.66459412        0.65294759
      102.74607       81.44720148        0.62099501
      102.84576       84.35727816        0.62030039
      102.94545       85.08446385        0.70961819
      103.04515       83.97311924        0.74615599
      103.14484       82.88211020        0.69246453
      103.24453       84.13393371        0.68705807
      103.34423       82.90430179        0.67635542
      103.44392       84.89168083        0.74163003
      103.54361       85.04853642        0.72113911
      103.64331       85.50268824        0.65823011
      103.74300       86.14473444        0.63028518
      103.84269       86.53775086        0.62082764
      103.94239       84.82216609        0.73841154
      104.04208       83.63103216        0.70918842
      104.14177       83.29582339        0.68855326
      104.24147       83.15580883        0.68760789
      104.34116       82.88877834        0.69073345
      104.44085       83.18542935        0.78594808
      104.54055       80.17639468        0.69824094
      104.64024       80.82995968        0.65908622
      104.73993       76.26825617        0.61045863
      104.83963       73.25698394        0.57611219
      104.93932       71.88829956        0.69169989
      105.03901       71.63187511        0.65056055
      105.13871       72.25617026        0.62920226
      105.23840       71.39693045        0.62499837
      105.33809       69.30352661        0.61917924
      105.43779       68.76836184        0.71758698
      105.53748       68.70252821        0.64320967
      105.63717       67.55417145        0.58451332
      105.73687       64.93578848        0.54513889
      105.83656       62.80147253        0.52220065
      105.93626       62.00914647        0.65748063
      106.03595       59.03501415        0.58112785
      106.13564       59.08910093        0.56193226
      106.23534       59.32576710        0.57001338
      106.33503       56.51192969        0.56167809
      106.43472       55.87376233        0.66019890
      106.53442       54.58597004        0.56746140
      106.63411       54.97740204        0.51736258
      106.73380       54.06026552        0.48888744
      106.83350       55.36489444        0.48747502
      106.93319       56.31579182        0.63743095
      107.03288       55.53848529        0.56095780
      107.13258       57.51025555        0.55425749
      107.23227       57.48859981        0.56219350
      107.33196       56.95408703        0.55798635
      107.43166       58.35850224        0.67882536
      107.53135       57.25118495        0.57999543
      107.63104       58.01829753        0.53171847
      107.73074       60.34157564        0.52045912
      107.83043       62.24578095        0.52209723
      107.93012       63.30405828        0.69663930
      108.02982       63.14781116        0.60897064
      108.12951       63.01110842        0.57846530
      108.22920       63.10159881        0.56960733
      108.32890       64.22560616        0.56928972
      108.42859       65.87352331        0.73193567
      108.52828       65.43032085        0.61872378
      108.62798       65.58937103        0.56172842
      108.72767       66.36760345        0.54242808
      108.82736       65.02117546        0.54860018
      108.92706       63.84381218        0.68833906
      109.02675       63.97616995        0.60281894
      109.12644       63.73988355        0.58724807
      109.22614       64.70193772        0.59222717
      109.32583       64.49773510        0.64430158
      109.42552       64.91086566        0.68183932
      109.52522       64.03063693        0.61087512
      109.62491       63.99248252        0.58086836
      109.72461       62.94944092        0.55069956
      109.82430       60.54957714        0.50431568
      109.92399       59.23813791        0.64841740
      110.02369       61.30989993        0.57787486
      110.12338       59.21662321        0.56401959
      110.22307       59.19608594        0.55969947
      110.32277       59.02453181        0.57069828
      110.42246       59.38482135        0.69606188
      110.52215       57.87894784        0.58186530
      110.62185       56.97928573        0.54402011
      110.72154       55.83916475        0.50234211
      110.82123       54.93740038        0.51451347
      110.92093       55.13081957        0.60116618
      111.02062       55.65380544        0.55806846
      111.12031       55.51139150        0.56150169
      111.22001       56.54029803        0.55616474
      111.31970       58.49008701        0.61411872
      111.41939       58.77111683        0.63702626
      111.51909       58.17022331        0.57500132
      111.61878       58.78332089        0.54456596
      111.71847       61.94345898        0.52038079
      111.81817       63.55835214        0.57226989
      111.91786       65.69523143        0.61250910
      112.01755       67.63362991        0.60704238
      112.11725       69.61195835        0.62073259
      112.21694       70.77386442        0.62320539
      112.31663       72.17493670        0.69367288
      112.41633       74.53592728        0.69279400
      112.51602       76.03482023        0.64452642
      112.61571       78.27945099        0.62407847
      112.71541       82.13566865        0.60283482
      112.81510       85.33825569        0.68937232
      112.91479       87.75856647        0.71241453
      113.01449       88.40813153        0.70028773
      113.11418       88.68209086        0.69906049
      113.21387       87.74710528        0.69209154
      113.31357       90.25889699        0.77987963
      113.41326       91.61609721        0.74688127
      113.51296       91.05468548        0.70033103
      113.61265       91.90700403        0.67900347
      113.71234       94.35992552        0.65743881
      113.81204       92.41202811        0.74512361
      113.91173       90.45108558        0.71409776
      114.01142       88.94585207        0.70081794
      114.11112       89.18585659        0.70141949
      114.21081       88.95188446        0.70553733
      114.31050       90.05149889        0.80518895
      114.41020       89.72526215        0.74264873
      114.50989       90.14608967        0.69691953
      114.60958       88.37570077        0.66756229
      114.70928       87.62592053        0.64103028
      114.80897       86.54087506        0.72239689
      114.90866       88.15499486        0.68788136
      115.00836       87.34753588        0.68142913
      115.10805       89.10214707        0.69219579
      115.20774       89.33079716        0.70359939
      115.30744       89.84949335        0.81027471
      115.40713       90.97600654        0.73864266
      115.50682       89.57499245        0.69177965
      115.60652       91.20723952        0.67295255
      115.70621       91.08353475        0.64630342
      115.80590       92.44119321        0.75974005
      115.90560       94.48180863        0.69640460
      116.00529       95.15946968        0.70677741
      116.10498       98.03953254        0.72524537
      116.20468       99.78996133        0.74871374
      116.30437       99.51968246        0.89126213
      116.40406      100.83196766        0.78152772
      116.50376      101.71828815        0.74189040
      116.60345      103.88893495        0.71998292
      116.70314      109.98458746        0.71907569
      116.80284      113.44846654        0.86826082
      116.90253      115.73132722        0.78916905
      117.00222      119.42970254        0.79583705
      117.10192      121.94388893        0.82606759
      117.20161      125.16930647        0.84757155
      117.30131      126.25572549        1.01880127
      117.40100      129.52498244        0.86800473
      117.50069      133.19043629        0.83649675
      117.60039      139.51531984        0.82019057
      117.70008      145.23765527        0.81149336
      117.79977      150.14153055        1.01188078
      117.89947      151.12617728        0.88268338
      117.99916      155.89623468        0.90792094
      118.09885      156.18784402        0.92585375
      118.19855      160.67650317        0.98430162
      118.29824      163.50256318        1.08901479
      118.39793      168.14799849        1.00346541
      118.49763      174.32444295        0.96512928
      118.59732      176.34503840        0.93751193
      118.69701      177.40554399        0.97974990
      118.79671      179.43609112        1.06429869
      118.89640      176.85034774        0.98470500
      118.99609      176.65526057        0.98307684
      119.09579      178.53965761        1.00013873
      119.19548      180.45837621        1.09901939
      119.29517      179.22271918        1.13764888
      119.39487      178.12293867        1.04239704
      119.49456      177.56143444        0.98067864
      119.59425      173.06167088        0.93954587
      119.69395      170.33346992        0.98294100
      119.79364      164.77767169        0.97614527
      119.89333      161.06648475        0.93345459
      119.99303      157.45986733        0.90057955
      120.09272      154.62694477        0.91234865
      120.19241      150.38237943        1.01060613
      120.29211      146.88197668        0.98801122
      120.39180      141.88621703        0.92566008
      120.49149      138.76005567        0.85092599
      120.59119      133.44855703        0.80923136
      120.69088      127.24482741        0.84976215
      120.79057      126.61887820        0.82938449
      120.89027      125.11598642        0.80920987
      120.98996      123.13061420        0.79632703
      121.08966      120.51531272        0.79337115
      121.18935      121.59824826        0.91365308
      121.28904      120.10211744        0.88477252
      121.38874      117.66361994        0.82780025
      121.48843      117.07139405        0.77981602
      121.58812      116.40548694        0.74154593
      121.68782      115.72837740        0.81902027
      121.78751      114.47630057        0.77604919
      121.88720      113.32764173        0.76212515
      121.98690      113.23435881        0.76750725
      122.08659      111.12773571        0.77528346
      122.18628      108.99680398        0.89038752
      122.28598      110.07863883        0.84161081
      122.38567      108.47448340        0.79992675
      122.48536      107.49878705        0.75314172
      122.58506      109.20759891        0.71916045
      122.68475      109.05054387        0.81433063
      122.78444      107.22666263        0.76010705
      122.88414      106.28216176        0.75020767
      122.98383      104.87933404        0.76032859
      123.08352      103.27075551        0.74781910
      123.18322      103.04504693        0.87120666
      123.28291      104.52731301        0.79766966
      123.38260      103.96638896        0.76790013
      123.48230      103.66054183        0.73898393
      123.58199       99.93139768        0.67773999
      123.68168       99.92178354        0.77333312
      123.78138       96.23534979        0.68428343
      123.88107       95.47418916        0.66572677
      123.98076       91.93204797        0.66494256
      124.08046       90.88918562        0.65407758
      124.18015       90.60504932        0.73913122
      124.27984       88.33876423        0.65362544
      124.37954       86.78630773        0.61117574
      124.47923       83.93829246        0.58650416
      124.57893       79.85040268        0.60902743
