        5.04651       61.94546228        1.21130762
        5.14621       60.15639606        1.15006286
        5.24590       59.25694656        1.12488913
        5.34559       58.94357970        1.02892117
        5.44529       58.31057944        1.11322400
        5.54498       56.16039529        0.91865007
        5.64467       56.33675807        0.91207728
        5.74437       57.24778482        0.83008216
        5.84406       56.10517705        0.83145095
        5.94375       54.71023696        0.81975106
        6.04345       56.97496233        0.81318001
        6.14314       54.02237048        0.72463764
        6.24283       54.83631012        0.75428278
        6.34253       55.63635639        0.72475987
        6.44222       54.15986927        0.75275900
        6.54191       54.54523550        0.71570383
        6.64161       53.04845896        0.66847286
        6.74130       54.37799874        0.67968828
        6.84099       54.39013623        0.67484395
        6.94069       53.40887307        0.67868298
        7.04038       53.48822389        0.62694725
        7.14007       55.21049163        0.63583000
        7.23977       54.11483137        0.61836606
        7.33946       53.30514456        0.62302944
        7.43915       53.92804578        0.61854877
        7.53885       54.14600009        0.60838484
        7.63854       53.48435588        0.57785059
        7.73823       54.45546325        0.60554126
        7.83793       54.17035204        0.58442441
        7.93762       53.43810889        0.60542756
        8.03732       54.33158132        0.54756845
        8.13701       54.48381076        0.54587425
        8.23670       53.53515900        0.54864610
        8.33640       53.45217386        0.54836337
        8.43609       55.74555948        0.58569344
        8.53578       54.63794726        0.53998872
        8.63548       54.34241225        0.53230941
        8.73517       54.08767885        0.52091561
        8.83486       54.48397929        0.52412970
        8.93456       54.60743800        0.52203937
        9.03425       54.33893701        0.50548163
        9.13394       54.31974173        0.50634216
        9.23364       53.73226932        0.51089766
        9.33333       54.67087639        0.52591855
        9.43302       54.39193896        0.52474500
        9.53272       55.07265246        0.51023916
        9.63241       54.73750026        0.52303194
        9.73210       54.65466003        0.52158093
        9.83180       55.00166228        0.54523895
        9.93149       55.18372802        0.54224845
       10.03118       54.75080050        0.51965699
       10.13088       54.96110175        0.50819665
       10.23057       54.77818385        0.53128223
       10.33026       54.88336009        0.54970700
       10.42996       55.52518198        0.54539686
       10.52965       55.69211846        0.52899993
       10.62934       55.32685283        0.52849564
       10.72904       56.22913891        0.54075175
       10.82873       56.09640311        0.53737904
       10.92842       56.52641072        0.54851755
       11.02812       56.18930745        0.52098770
       11.12781       56.53324603        0.54135694
       11.22750       56.56784939        0.54692095
       11.32720       57.08942211        0.56426603
       11.42689       57.39482293        0.54617279
       11.52658       57.59003889        0.54059889
       11.62628       57.41815718        0.54563227
       11.72597       58.03017690        0.56024256
       11.82567       57.33776672        0.57230753
       11.92536       59.88617868        0.54759044
       12.02505       58.59459340        0.54405348
       12.12475       61.36635525        0.55653308
       12.22444       64.61909731        0.60590547
       12.32413       67.85693999        0.63068786
       12.42383       72.56345929        0.61948732
       12.52352       78.64545981        0.64151527
       12.62321       87.47564033        0.69666641
       12.72291       98.19347682        0.71933085
       12.82260      112.42229385        0.83836691
       12.92229      120.43889740        0.78883904
       13.02199      142.70575834        0.85461015
       13.12168      174.01588751        0.96453689
       13.22137      208.81037755        1.09635868
       13.32107      243.00841393        1.22678849
       13.42076      281.66760198        1.27845020
       13.52045      316.43134985        1.37823676
       13.62015      335.50998185        1.37933929
       13.71984      330.34741999        1.42572030
       13.81953      312.92869454        1.40824975
       13.91923      283.58147551        1.25466103
       14.01892      227.15161788        1.08493608
       14.11861      177.11975408        0.99270001
       14.21831      141.80538026        0.88474649
       14.31800      113.47833638        0.82980526
       14.41769       88.46351818        0.70293307
       14.51739       75.76421842        0.63347236
       14.61708       65.04744070        0.58745688
       14.71677       57.67583875        0.56153155
       14.81647       57.12447341        0.58539601
       14.91616       53.08080445        0.51858206
       15.01585       52.57169405        0.52534994
       15.11555       51.46647813        0.52572277
       15.21524       51.72313978        0.54321163
       15.31493       50.45080902        0.54930493
       15.41463       49.78555760        0.52827269
       15.51432       51.29011506        0.51971751
       15.61402       49.20667273        0.52175405
       15.71371       49.94359902        0.52210266
       15.81340       50.74915347        0.54757894
       15.91310       51.10694825        0.53396402
       16.01279       49.36899422        0.50234541
       16.11248       50.21804602        0.52032879
       16.21218       50.66057597        0.53714048
       16.31187       50.06771555        0.53523886
       16.41156       49.87189539        0.52422638
       16.51126       50.66730767        0.53739875
       16.61095       50.65750014        0.51812416
       16.71064       52.18585945        0.54265229
       16.81034       53.91512699        0.55340499
       16.91003       55.02263133        0.54304129
       17.00972       56.32393294        0.52756411
       17.10942       60.03862170        0.57606533
       17.20911       63.42958024        0.59768186
       17.30880       66.07271573        0.61557376
       17.40850       71.05813832        0.63875988
       17.50819       74.52940760        0.63557602
       17.60788       76.16302378        0.66263324
       17.70758       76.79187645        0.66817639
       17.80727       76.75117384        0.67624198
       17.90696       72.59065931        0.61445790
       18.00666       70.04943232        0.61394074
       18.10635       65.40669290        0.57658161
       18.20604       62.36322611        0.61731523
       18.30574       59.26602601        0.57324389
       18.40543       56.51236179        0.54566042
       18.50512       55.96579211        0.56010090
       18.60482       54.93850395        0.54613607
       18.70451       53.76641420        0.57082935
       18.80420       52.42436606        0.52939575
       18.90390       52.29280785        0.52307488
       19.00359       51.44182980        0.50516530
       19.10328       49.76640998        0.52553069
       19.20298       49.50529684        0.54043538
       19.30267       49.04941133        0.51655496
       19.40237       47.79210549        0.50401053
       19.50206       47.18648126        0.51334413
       19.60175       48.49367848        0.51468759
       19.70145       47.79152585        0.53571093
       19.80114       48.21005708        0.51034671
       19.90083       46.83897657        0.48592172
       20.00053       47.45340927        0.49783003
       20.10022       48.56321283        0.50745607
       20.19991       49.23140589        0.54631003
       20.29961       50.89364747        0.52644963
       20.39930       50.82495514        0.54198055
       20.49899       52.68744862        0.54241020
       20.59869       53.24930122        0.55531874
       20.69838       54.88504204        0.58473941
       20.79807       55.59166369        0.56137184
       20.89777       56.74493801        0.55444460
       20.99746       57.77180645        0.56510172
       21.09715       59.18820317        0.60263254
       21.19685       58.35390020        0.59516545
       21.29654       61.08783384        0.59430627
       21.39623       59.27701816        0.58527886
       21.49593       57.75978096        0.56933290
       21.59562       56.45405530        0.57628442
       21.69531       54.37119650        0.58803824
       21.79501       50.11408764        0.51606789
       21.89470       49.20008578        0.49975481
       21.99439       46.96968382        0.50880111
       22.09409       47.45468463        0.51273175
       22.19378       45.76266376        0.53456353
       22.29347       46.43637848        0.50157284
       22.39317       47.84797860        0.52245708
       22.49286       46.70497457        0.51566406
       22.59255       46.24390814        0.51910413
       22.69225       47.51280049        0.55460916
       22.79194       46.39792764        0.49211685
       22.89163       47.11472722        0.48626827
       22.99133       46.18517263        0.49471852
       23.09102       47.00118758        0.51837877
       23.19072       46.60409053        0.51736615
       23.29041       47.20202431        0.51424507
       23.39010       47.14874884        0.51933424
       23.48980       47.46351560        0.52298527
       23.58949       46.79578409        0.52619617
       23.68918       46.25224579        0.55005407
       23.78888       45.69680408        0.48720855
       23.88857       46.09971001        0.49578998
       23.98826       46.30542904        0.50801243
       24.08796       45.10980815        0.49153938
       24.18765       47.34991931        0.53981717
       24.28734       46.10491035        0.50704713
       24.38704       45.14636899        0.51004952
       24.48673       45.85330672        0.51225211
       24.58642       44.46332575        0.52099288
       24.68612       46.43883709        0.53192018
       24.78581       45.61966171        0.48592697
       24.88550       47.11305172        0.49374333
       24.98520       47.25140636        0.51277053
       25.08489       47.48946665        0.52434662
       25.18458       48.02578058        0.53842585
       25.28428       48.81397662        0.52325882
       25.38397       49.15313167        0.52255365
       25.48366       51.03378463        0.53581676
       25.58336       54.20199562        0.57587060
       25.68305       59.50784874        0.59233180
       25.78274       67.38965468        0.59569385
       25.88244       80.71845759        0.66984326
       25.98213      103.58765281        0.76781839
       26.08182      134.04861890        0.90067427
       26.18152      159.92522811        1.01153082
       26.28121      187.93589040        1.04162257
       26.38090      201.37268048        1.08941530
       26.48060      199.02244198        1.11244214
       26.58029      183.00253355        1.11010021
       26.67998      161.47056768        0.98169888
       26.77968      129.42761636        0.86424125
       26.87937       99.79671672        0.74464775
       26.97907       80.05369557        0.65938509
       27.07876       74.98379095        0.68667846
       27.17845       72.08701868        0.64313486
       27.27815       76.05592298        0.64555935
       27.37784       81.87473445        0.69657548
       27.47753       86.21973182        0.70477706
       27.57723       87.14950746        0.74237850
       27.67692       86.11967014        0.72021046
       27.77661       81.31642667        0.66744981
       27.87631       72.34956729        0.61821020
       27.97600       65.41837714        0.60043295
       28.07569       59.30475802        0.60445730
       28.17539       55.04096426        0.55707990
       28.27508       52.97811657        0.54659395
       28.37477       51.41209565        0.55112197
       28.47447       52.18810981        0.55100324
       28.57416       52.67053633        0.59849797
       28.67385       55.09243815        0.54480459
       28.77355       56.43211991        0.54156152
       28.87324       57.79021674        0.56276479
       28.97293       59.79075910        0.57395534
       29.07263       59.92039897        0.62633166
       29.17232       59.07583465        0.56745714
       29.27201       56.88294031        0.56690026
       29.37171       55.29094964        0.57480206
       29.47140       53.68637366        0.55971126
       29.57109       52.01579828        0.58404473
       29.67079       49.85318079        0.52034410
       29.77048       48.82463240        0.51605111
       29.87017       48.17088777        0.50246679
       29.96987       48.32242918        0.52769257
       30.06956       49.17654652        0.54928294
       30.16925       48.16690899        0.51175723
       30.26895       50.18836496        0.52456518
       30.36864       50.52457222        0.53495136
       30.46833       53.18927165        0.55469426
       30.56803       54.90367773        0.59548423
       30.66772       57.69475312        0.56832262
       30.76742       61.33656959        0.57461007
       30.86711       63.57677469        0.59689131
       30.96680       66.63991209        0.61495471
       31.06650       64.27303776        0.63299936
       31.16619       63.47091153        0.59136609
       31.26588       62.40811311        0.58276816
       31.36558       59.63943829        0.57688144
       31.46527       60.79799437        0.60617649
       31.56496       62.93697804        0.62688180
       31.66466       65.68704573        0.59920196
       31.76435       75.62710696        0.64335715
       31.86404       81.07588832        0.65795192
       31.96374       87.67039982        0.70081295
       32.06343       89.64172661        0.73357488
       32.16312       87.06733748        0.67913704
       32.26282       80.78045785        0.66944724
       32.36251       73.12348734        0.66157966
       32.46220       66.38317694        0.64094635
       32.56190       60.58261760        0.62256343
       32.66159       57.33766056        0.57485261
       32.76128       54.16622081        0.54589755
       32.86098       53.16290676        0.54884605
       32.96067       52.99088193        0.55480663
       33.06036       52.53793821        0.56246686
       33.16006       53.57258373        0.53499413
       33.25975       54.11512408        0.55521683
       33.35944       56.67588951        0.57153451
       33.45914       56.82478149        0.59406779
       33.55883       59.62576007        0.61025225
       33.65852       61.95240643        0.58027662
       33.75822       67.21592076        0.60390207
       33.85791       74.15154544        0.63759262
       33.95760       82.92912399        0.69516510
       34.05730       91.15240020        0.72265502
       34.15699      102.30647589        0.75471789
       34.25668      114.61990026        0.79750826
       34.35638      138.45759427        0.90237810
       34.45607      175.82917650        1.07688840
       34.55577      222.11999697        1.16101680
       34.65546      293.49273650        1.29273194
       34.75515      382.39121898        1.52206270
       34.85485      450.18429461        1.65357156
       34.95454      472.38824413        1.75191388
       35.05423      447.98190140        1.75848522
       35.15393      387.63700178        1.52370037
       35.25362      298.79550783        1.34218675
       35.35331      219.64004600        1.16782856
       35.45301      157.55266003        1.02305588
       35.55270      119.21246288        0.86182194
       35.65239       93.00903092        0.73242698
       35.75209       82.32559433        0.68301218
       35.85178       78.39773707        0.66525994
       35.95147       72.92642052        0.65615374
       36.05117       70.23849909        0.63042660
       36.15086       64.48715989        0.58026865
       36.25055       59.62421620        0.58245988
       36.35025       55.99094142        0.57513397
       36.44994       54.34698317        0.57779454
       36.54963       51.82573036        0.54140556
       36.64933       52.66902332        0.53772800
       36.74902       53.47923844        0.54758777
       36.84871       52.09203570        0.53641140
       36.94841       52.11139803        0.58020665
       37.04810       51.94148009        0.51074629
       37.14779       52.66737264        0.52491508
       37.24749       51.17762655        0.53169427
       37.34718       50.57011137        0.54195435
       37.44687       49.76898611        0.57745620
       37.54657       50.19692707        0.52948063
       37.64626       49.29031995        0.52258332
       37.74595       49.56391012        0.51586268
       37.84565       49.62985788        0.54619858
       37.94534       48.69595445        0.55108834
       38.04503       50.00520908        0.50485413
       38.14473       50.22055149        0.51091722
       38.24442       50.89218851        0.52378330
       38.34412       49.69457532        0.54101404
       38.44381       51.23893635        0.59417379
       38.54350       51.14675611        0.52916832
       38.64320       52.33788353        0.53378242
       38.74289       53.54588246        0.54708329
       38.84258       55.74704070        0.55977807
       38.94228       57.96645021        0.59893660
       39.04197       62.45951481        0.56103835
       39.14166       65.63550778        0.59859593
       39.24136       70.19236607        0.61783241
       39.34105       72.46229843        0.64987906
       39.44074       72.70025994        0.71005432
       39.54044       71.22185429        0.62823473
       39.64013       69.27918121        0.61751188
       39.73982       65.78379828        0.60381248
       39.83952       61.84982261        0.58113543
       39.93921       60.30319391        0.60827909
       40.03890       58.38568641        0.54769368
       40.13860       56.45606335        0.53769271
       40.23829       55.95994661        0.55421626
       40.33798       56.00794678        0.57174254
       40.43768       58.00071355        0.60895749
       40.53737       57.47947419        0.56259482
       40.63706       57.53945831        0.57471268
       40.73676       60.16389792        0.58700634
       40.83645       60.56706178        0.59392765
       40.93614       64.13972339        0.62181577
       41.03584       67.82696568        0.60213095
       41.13553       75.89814616        0.63850302
       41.23522       87.47826922        0.70339945
       41.33492      104.20862900        0.80571339
       41.43461      123.06825580        0.90619055
       41.53430      145.83801846        0.92693563
       41.63400      170.16982233        1.02680698
       41.73369      189.93281992        1.06421542
       41.83338      198.52316688        1.11850132
       41.93308      202.63133588        1.12067360
       42.03277      200.72718290        1.01906086
       42.13247      214.06460880        1.10802436
       42.23216      255.40642641        1.21946336
       42.33185      328.28147445        1.49919395
       42.43155      417.73281413        1.68672837
       42.53124      524.11438317        1.85574416
       42.63093      612.34281938        2.03319553
       42.73063      656.46007509        2.12698410
       42.83032      624.49746663        2.10238004
       42.93001      560.76403749        1.90157404
       43.02971      432.99093995        1.55149860
       43.12940      300.46928791        1.29455037
       43.22909      203.71017909        1.10514366
       43.32879      145.46819487        0.97580453
       43.42848      108.69422288        0.82072500
       43.52817       84.14318870        0.68851449
       43.62787       72.21763920        0.63471010
       43.72756       67.23020651        0.62649262
       43.82725       63.31804801        0.63449669
       43.92695       60.47953796        0.56208196
       44.02664       59.43126582        0.55444109
       44.12633       58.39016632        0.56995241
       44.22603       57.88817286        0.59063702
       44.32572       57.20430420        0.61874774
       44.42541       55.86124270        0.58363886
       44.52511       57.08973025        0.57427378
       44.62480       57.95746184        0.58688920
       44.72449       59.24509885        0.57515183
       44.82419       61.61955153        0.65844747
       44.92388       66.90150571        0.57270212
       45.02357       72.73970834        0.60260903
       45.12327       81.57057973        0.65817864
       45.22296       91.88165023        0.71800558
       45.32265      109.63742769        0.86991819
       45.42235      127.90116247        0.85778399
       45.52204      164.16990679        0.96740327
       45.62174      210.98964628        1.12471545
       45.72143      262.55526759        1.26464278
       45.82112      294.20724958        1.47262581
       45.92082      314.96616425        1.29777334
       46.02051      306.45470420        1.30573367
       46.12020      266.76436683        1.21464260
       46.21990      215.95909581        1.13926089
       46.31959      172.30737288        1.09136257
       46.41928      130.22637981        0.87050629
       46.51898       97.59335441        0.75394343
       46.61867       75.19879512        0.65623437
       46.71836       66.08518518        0.63020671
       46.81806       61.87045899        0.63196053
       46.91775       57.40604334        0.53027002
       47.01744       56.60843859        0.53908382
       47.11714       59.47625225        0.56547043
       47.21683       60.91338445        0.58923167
       47.31652       66.39892630        0.67172193
       47.41622       74.95055607        0.67343994
       47.51591       87.50082305        0.73038125
       47.61560      104.58633569        0.79390419
       47.71530      129.34363803        0.89587558
       47.81499      156.23824878        1.01367069
       47.91468      187.38289891        0.97591038
       48.01438      213.76336039        1.04715107
       48.11407      223.86932506        1.11345605
       48.21376      214.83560549        1.13715010
       48.31346      193.74245967        1.11458216
       48.41315      165.24460921        0.95513025
       48.51284      130.73527842        0.87301452
       48.61254       99.74542534        0.75571893
       48.71223       80.49471540        0.68914381
       48.81192       66.92181534        0.62556024
       48.91162       58.73188180        0.52470294
       49.01131       54.25843083        0.52166480
       49.11100       53.14944823        0.53483671
       49.21070       52.20956733        0.55645002
       49.31039       51.25374711        0.56733306
       49.41009       50.33477386        0.53104319
       49.50978       50.63604796        0.54368016
       49.60947       49.00140468        0.53859480
       49.70917       49.45870928        0.56121079
       49.80886       49.03217154        0.54379649
       49.90855       49.99892072        0.50030727
       50.00825       50.14406005        0.51162845
       50.10794       50.33511238        0.52428558
       50.20763       50.58593081        0.54914404
       50.30733       50.92635346        0.57718816
       50.40702       52.44482878        0.54942260
       50.50671       54.46493775        0.56174515
       50.60641       54.93644319        0.56501676
       50.70610       56.09730453        0.58761004
       50.80579       55.45639928        0.57646984
       50.90549       56.63597302        0.52534210
       51.00518       55.09739663        0.52261184
       51.10487       55.93303573        0.54437954
       51.20457       55.28399012        0.57610375
       51.30426       56.62214290        0.58013602
       51.40395       56.42003676        0.55514710
       51.50365       57.94147558        0.56915770
       51.60334       59.03945254        0.58598283
       51.70303       60.01004674        0.62748051
       51.80273       60.16249734        0.57631499
       51.90242       60.96256599        0.54210025
       52.00211       62.42555791        0.55129999
       52.10181       62.79405882        0.57046130
       52.20150       62.82251030        0.62837893
       52.30119       62.52368937        0.60384426
       52.40089       62.66147792        0.59505765
       52.50058       61.13397294        0.59870566
       52.60027       60.15267327        0.60189048
       52.69997       58.48584783        0.65022726
       52.79966       57.92430559        0.54398271
       52.89935       59.60155995        0.53257781
       52.99905       65.02299202        0.56586594
       53.09874       74.54071935        0.62636081
       53.19844       87.85622784        0.78037131
       53.29813      105.02628405        0.76033724
       53.39782      124.75034056        0.85994376
       53.49752      143.51958461        0.92932520
       53.59721      162.00800426        0.98953049
       53.69690      171.43864374        1.11857208
       53.79660      178.83227850        0.95812809
       53.89629      171.15466449        0.92604345
       53.99598      155.89157223        0.90314103
       54.09568      134.42842416        0.87274780
       54.19537      119.61483026        0.89573264
       54.29506      106.09280037        0.77332178
       54.39476       95.08142064        0.73647262
       54.49445       87.66808704        0.70685069
       54.59414       84.45256318        0.70398403
       54.69384       83.33493474        0.74590466
       54.79353       80.07409251        0.62666190
       54.89322       77.06442011        0.61225393
       54.99292       73.62547559        0.61561134
       55.09261       70.95902195        0.62822956
       55.19230       66.85011832        0.65437935
       55.29200       63.99436591        0.59563153
       55.39169       61.96444569        0.60456515
       55.49138       59.49277672        0.58994599
       55.59108       56.99013551        0.59567000
       55.69077       55.47930390        0.60300419
       55.79046       54.22092563        0.52106828
       55.89016       53.74097547        0.51747452
       55.98985       53.78241021        0.52099608
       56.08954       56.38733596        0.55129073
       56.18924       59.92269113        0.61368951
       56.28893       67.12112476        0.59515525
       56.38862       75.08479564        0.65195552
       56.48832       85.85950969        0.71038722
       56.58801       97.78994403        0.78155844
       56.68770      107.20178082        0.84585654
       56.78740      110.85838756        0.73658026
       56.88709      115.79572571        0.76095813
       56.98679      110.87222489        0.74469211
       57.08648      101.81807842        0.75541297
       57.18617       94.73177148        0.75364305
       57.28587       83.82756512        0.66121832
       57.38556       74.32387599        0.66175204
       57.48525       66.30124182        0.63618368
       57.58495       61.51080933        0.62631784
       57.68464       56.91244625        0.60723474
       57.78433       54.41234764        0.51918936
       57.88403       53.35989020        0.52004287
       57.98372       52.92983669        0.52615132
       58.08341       52.78154682        0.56807962
       58.18311       53.57860855        0.58556040
       58.28280       53.62222378        0.55176149
       58.38249       52.83943326        0.57223746
       58.48219       51.68376132        0.57804986
       58.58188       52.23243959        0.58752125
       58.68157       52.06390628        0.57477448
       58.78127       52.85909112        0.50665145
       58.88096       53.80460149        0.50370318
       58.98065       54.62475806        0.52692759
       59.08035       55.79503852        0.56836426
       59.18004       58.83320870        0.59235125
       59.27973       59.61759335        0.56266132
       59.37943       63.67770299        0.60108888
       59.47912       67.02964687        0.64234506
       59.57881       72.46298599        0.70029017
       59.67851       77.41885939        0.67539310
       59.77820       82.34317232        0.64082200
       59.87789       89.55189094        0.66667838
       59.97759       97.23705185        0.72760311
       60.07728      101.51263922        0.80561166
       60.17697      105.09285837        0.78131873
       60.27667      107.23475184        0.76760147
       60.37636      105.28841822        0.77510046
       60.47605      104.16395163        0.80414096
       60.57575       98.30918176        0.85534623
       60.67544       93.08528356        0.71446259
       60.77514       85.67438042        0.65084539
       60.87483       78.45445274        0.61002215
       60.97452       70.26147370        0.60734731
       61.07422       66.80730718        0.66492005
       61.17391       65.63492477        0.57078883
       61.27360       64.98981353        0.58808036
       61.37330       65.53742323        0.61251253
       61.47299       67.96289130        0.65142876
       61.57268       68.62481704        0.74447397
       61.67238       68.38898248        0.60569463
       61.77207       71.13386341        0.60190861
       61.87176       70.98500143        0.59456399
       61.97146       70.24084497        0.61396166
       62.07115       68.24429910        0.68516326
       62.17084       67.07513990        0.59500362
       62.27054       63.51682705        0.60335057
       62.37023       63.53404262        0.62747348
       62.46992       60.35850840        0.63220583
       62.56962       59.92991561        0.70748365
       62.66931       57.25619290        0.55682627
       62.76900       58.51839244        0.54878883
       62.86870       62.13034874        0.55345714
       62.96839       67.40905672        0.59538984
       63.06808       73.63008705        0.69318391
       63.16778       83.23723476        0.65527904
       63.26747       99.78577833        0.74451181
       63.36716      119.18816612        0.84715644
       63.46686      139.25440578        0.94631100
       63.56655      155.48810919        1.06516199
       63.66624      176.64928055        0.96831822
       63.76594      198.66480558        1.00102029
       63.86563      211.55537621        1.03185960
       63.96532      208.70421571        1.07184384
       64.06502      197.48162270        1.11487025
       64.16471      177.66253021        0.97492813
       64.26440      154.28964491        0.94221819
       64.36410      128.18668186        0.87247109
       64.46379      108.86777485        0.84769460
       64.56349       93.87983357        0.79927087
       64.66318       79.82355687        0.64363365
       64.76287       68.90300532        0.58959874
       64.86257       63.17310116        0.56319892
       64.96226       59.03282641        0.56990100
       65.06195       57.22267047        0.60654913
       65.16165       53.79153457        0.53019109
       65.26134       53.85754619        0.54294470
       65.36103       53.45153425        0.56437238
       65.46073       54.13645345        0.58670772
       65.56042       54.93691036        0.61737957
       65.66011       55.79997861        0.54262221
       65.75981       56.86825396        0.54241171
       65.85950       58.49801090        0.54677020
       65.95919       60.98301541        0.58463009
       66.05889       64.22538926        0.62091812
       66.15858       70.06418369        0.61730034
       66.25827       80.76066085        0.68661839
       66.35797       92.93944234        0.76883033
       66.45766      108.09197300        0.88313753
       66.55735      122.82446749        0.94334514
       66.65705      138.63046645        0.89119579
       66.75674      153.28485127        0.91524243
       66.85643      165.19509749        0.94102590
       66.95613      171.33601778        0.99733851
       67.05582      173.44851359        1.01128755
       67.15551      165.69924924        0.93939828
       67.25521      155.28882792        0.95295753
       67.35490      140.34525780        0.95149611
       67.45459      122.21141775        0.93375665
       67.55429      109.92188801        0.84690870
       67.65398       91.66975435        0.69127527
       67.75367       79.51088615        0.63733148
       67.85337       74.66441573        0.62475268
       67.95306       74.74420508        0.66844824
       68.05275       78.98607008        0.65113525
       68.15245       88.71827167        0.68525562
       68.25214       99.29829098        0.77079678
       68.35184      107.36296165        0.83635977
       68.45153      112.32747882        0.94246926
       68.55122      120.56419016        0.84224114
       68.65092      128.73899568        0.81224753
       68.75061      132.62135613        0.83338527
       68.85030      130.38042668        0.84187458
       68.95000      125.69473462        0.93644151
       69.04969      119.24602726        0.76948412
       69.14938      102.74919992        0.73250763
       69.24908       88.79088618        0.72556673
       69.34877       77.58949947        0.70024880
       69.44846       71.74243284        0.78033104
       69.54816       63.81858212        0.57309976
       69.64785       58.25627353        0.53937850
       69.74754       54.92642690        0.52872986
       69.84724       52.11544577        0.52821206
       69.94693       51.21759798        0.59087895
       70.04662       49.21114884        0.47612979
       70.14632       47.69053072        0.48727249
       70.24601       46.97502730        0.51774562
       70.34570       47.91815159        0.55343753
       70.44540       47.70466501        0.65060187
       70.54509       47.27693742        0.50692238
       70.64478       49.21093204        0.51662499
       70.74448       50.36572973        0.53104206
       70.84417       50.99516672        0.55454688
       70.94386       51.13244410        0.60957031
       71.04356       51.40054108        0.50576196
       71.14325       52.71944229        0.53239821
       71.24294       53.83729740        0.56618619
       71.34264       54.59671236        0.60465101
       71.44233       54.07586867        0.67143854
       71.54202       55.65325245        0.55470190
       71.64172       55.78289061        0.54022481
       71.74141       54.20569074        0.52272646
       71.84110       52.60621528        0.53291323
       71.94080       53.45782904        0.58547711
       72.04049       52.97464000        0.49326257
       72.14019       52.61608840        0.51215840
       72.23988       52.12608936        0.53333064
       72.33957       51.62939945        0.59283753
       72.43927       52.31103491        0.65696692
       72.53896       52.59497605        0.52819920
       72.63865       52.09128374        0.51376769
       72.73835       56.00229237        0.52134292
       72.83804       59.50821723        0.56783408
       72.93773       62.87008854        0.62032861
       73.03743       64.64849243        0.54618174
       73.13712       67.19857820        0.58749858
       73.23681       69.50524252        0.62797411
       73.33651       69.61417275        0.69154709
       73.43620       69.54578378        0.74866678
       73.53589       69.57444061        0.60406894
       73.63559       69.23044496        0.59307634
       73.73528       68.31502010        0.58637280
       73.83497       65.88278905        0.61022885
       73.93467       65.28693562        0.63959456
       74.03436       62.45323367        0.55334785
       74.13405       60.48297019        0.56750787
       74.23375       57.89686128        0.57810620
       74.33344       56.33187042        0.62758516
       74.43313       56.84733596        0.65425204
       74.53283       56.26404634        0.55296299
       74.63252       55.71765459        0.54623115
       74.73221       57.81738871        0.55390621
       74.83191       59.64145820        0.59696010
       74.93160       62.21791737        0.61685298
       75.03129       65.40001082        0.56254325
       75.13099       73.58919672        0.61893665
       75.23068       84.54009785        0.69323368
       75.33037       97.20706765        0.81882842
       75.43007      109.62121577        0.88390243
       75.52976      125.39433943        0.82325378
       75.62945      143.36470148        0.88208455
       75.72915      156.01928733        0.91841124
       75.82884      163.65475096        1.01395224
       75.92854      168.38579190        0.96621759
       76.02823      174.20347742        0.92254771
       76.12792      174.62568915        0.96545150
       76.22762      169.23555040        1.00184622
       76.32731      159.30579355        1.09595176
       76.42700      150.91769101        1.00536913
       76.52670      138.72472997        0.88743594
       76.62639      120.35326634        0.81364047
       76.72608      104.01010379        0.74180838
       76.82578       96.54018311        0.82248080
       76.92547       93.81748010        0.64914386
       77.02516       95.96040219        0.68070128
       77.12486      104.84493589        0.74856238
       77.22455      119.89569227        0.85450715
       77.32424      132.27764542        1.10494494
       77.42394      141.21938134        0.91295345
       77.52363      149.14931180        0.90783558
       77.62332      160.49274375        0.93917209
       77.72302      171.44672189        0.97463710
       77.82271      175.82028076        1.15831065
       77.92240      179.16927538        0.89586242
       78.02210      175.04972533        0.95483850
       78.12179      167.89151005        0.99757077
       78.22148      155.87545196        1.01443337
       78.32118      143.70252194        1.12793460
       78.42087      128.66312718        0.83787801
       78.52056      109.33830983        0.79506504
       78.62026       92.86636208        0.72498352
       78.71995       81.79653787        0.68142989
       78.81964       73.91940587        0.72262761
       78.91934       66.68794117        0.53120860
       79.01903       61.79988749        0.56019741
       79.11872       58.96929028        0.56923903
       79.21842       55.94093603        0.59115361
       79.31811       55.47297902        0.66304936
       79.41780       56.68251553        0.54381695
       79.51750       57.43443694        0.55630309
       79.61719       58.18789176        0.56166117
       79.71689       58.94234546        0.58698207
       79.81658       60.21309487        0.62903768
       79.91627       62.06467878        0.54151387
       80.01597       60.71535841        0.55038538
       80.11566       62.52176674        0.58403114
       80.21535       65.30308509        0.63834339
       80.31505       66.23390688        0.76434870
       80.41474       66.81371617        0.58996159
       80.51443       67.93066680        0.59238053
       80.61413       70.00304559        0.62150976
       80.71382       70.56049950        0.64553741
       80.81351       73.39210414        0.74013228
       80.91321       74.68618335        0.55067451
       81.01290       83.66026047        0.63005872
       81.11259       93.62613082        0.72050497
       81.21229      107.91534358        0.83853614
       81.31198      119.98666989        0.98812144
       81.41167      139.53665859        0.83682941
       81.51137      168.13373113        0.94920101
       81.61106      190.20504065        1.05774509
       81.71075      210.40970455        1.15498060
       81.81045      227.20002186        1.27474426
       81.91014      258.85682274        1.05134674
       82.00983      297.19431614        1.21120999
       82.10953      325.42093260        1.42397778
       82.20922      349.11410617        1.64625146
       82.30891      363.18098323        1.76440298
       82.40861      374.83829758        1.46027227
       82.50830      369.79796734        1.44553353
       82.60799      362.71604739        1.54045878
       82.70769      352.16709313        1.64914930
       82.80738      344.19219474        1.55581652
       82.90707      325.80500951        1.22567159
       83.00677      302.38244400        1.25363939
       83.10646      277.77445994        1.40847632
       83.20615      253.16230283        1.49103515
       83.30585      233.71394296        1.35317788
       83.40554      200.25418646        1.03598213
       83.50524      167.21232000        0.91897178
       83.60493      135.66086992        0.90736501
       83.70462      120.06327237        0.96026367
       83.80432      106.72838643        0.78961963
       83.90401       89.38946680        0.60458339
       84.00370       76.05830264        0.58049264
       84.10340       70.53715000        0.66751298
       84.20309       67.32447838        0.79135529
       84.30278       64.72100320        0.63078791
       84.40248       64.08183694        0.55392760
       84.50217       62.18752097        0.53517313
       84.60186       61.22420947        0.60034725
       84.70156       63.18761450        0.79837642
       84.80125       62.55643544        0.55300045
       84.90094       63.38571411        0.50012382
       85.00064       61.61808734        0.50788609
       85.10033       62.84294463        0.60714386
       85.20002       61.74328340        1.03196594
       85.29972       65.14751204        0.55950310
       85.39941       65.76874516        0.57321411
       85.49910       65.53790497        0.55643449
       85.59880       66.19437885        0.62888776
       85.69849       65.91413810        1.12662443
       85.79818       66.90885437        0.53524813
       85.89788       65.44540632        0.51658358
       85.99757       65.42844969        0.53072059
       86.09726       66.98988170        0.61673992
       86.19696       65.22000840        1.16843307
       86.29665       68.31073782        0.56618734
       86.39634       65.59361542        0.56417690
       86.49604       65.38875926        0.55475678
       86.59573       63.35090213        0.58159749
       86.69542       62.59463305        1.20856455
       86.79512       59.05758143        0.48700765
       86.89481       59.22116083        0.48082300
       86.99451       57.44542047        0.49071386
       87.09420       54.14495004        0.53102135
       87.19389       55.87260125        1.27816572
       87.29359       53.82934848        0.50826624
       87.39328       52.67412761        0.50947359
       87.49297       50.49443028        0.48405837
       87.59267       49.85338384        0.49037934
       87.69236       50.39704121        1.47547716
       87.79205       50.47186031        0.45997617
       87.89175       50.82408679        0.45789028
       87.99144       51.13754919        0.47862317
       88.09113       50.60767079        0.50602992
       88.19083       48.98206348        2.63367224
       88.29052       51.32627986        0.51288520
       88.39021       50.03716851        0.50966483
       88.48991       49.72660113        0.48758744
       88.58960       50.97251216        0.47816846
       88.68929       54.38311337        3.82839526
       88.78899       50.36024178        0.45871566
       88.88868       50.36790146        0.44873185
       88.98837       50.12179476        0.46556110
       89.08807       48.74675346        0.47016337
       89.18776       52.30871263        3.96526428
       89.28745       49.21379177        0.48001282
       89.38715       50.53816324        0.49153798
       89.48684       53.41047466        0.49474738
       89.58653       53.91146284        0.48700557
       89.68623       49.96637597        3.79825839
       89.78592       58.75216925        0.49441446
       89.88561       62.12449458        0.49871490
       89.98531       66.90876912        0.53114090
       90.08500       76.15321693        0.58862264
       90.18469       74.61094891        4.85791787
       90.28439       83.18575956        0.62905786
       90.38408       89.10806362        0.66265184
       90.48377       96.33131989        0.67686825
       90.58347      102.46011860        0.68779685
       90.68316      103.19077624        5.37731934
       90.78286      102.48685640        0.65846183
       90.88255      104.04363089        0.64572198
       90.98224      105.01673381        0.67131006
       91.08194      105.01232277        0.69331918
       91.18163      104.84168832        5.52782401
       91.28132      103.21052288        0.70747147
       91.38102       98.82459528        0.71011688
       91.48071       94.40317722        0.67650835
       91.58040       85.23265689        0.62070472
       91.68010       79.78138716        4.53894072
       91.77979       76.56148909        0.56389305
       91.87948       71.58809215        0.53639249
       91.97918       66.39700318        0.53594018
       92.07887       62.46876121        0.54114695
       92.17856       60.86114704        4.06013509
       92.27826       62.97781403        0.56121717
       92.37795       61.99230781        0.56992055
       92.47764       63.87844941        0.54937372
       92.57734       67.70358987        0.54903640
       92.67703       74.01076725        3.73029855
       92.77672       75.74919366        0.56049515
       92.87642       84.95248076        0.58315465
       92.97611       93.43365980        0.63953069
       93.07580       99.15310348        0.75265084
       93.17550      103.55145642        1.44741562
       93.27519      101.51957343        0.70224830
       93.37488      105.03552205        0.69477151
       93.47458      107.87657690        0.71219087
       93.57427      110.52108239        0.83378749
       93.67396      110.45670469        1.12645224
       93.77366      110.89534101        0.69925360
       93.87335      108.95689551        0.66184234
       93.97304      105.72125335        0.67903264
       94.07274       95.54310164        0.83662220
       94.17243       96.07354077        0.95733562
       94.27212       90.58933772        0.69173946
       94.37182       85.78221318        0.65549717
       94.47151       78.86002922        0.60117886
       94.57121       72.96560867        0.76241309
       94.67090       69.73479435        0.75355509
       94.77059       68.72880735        0.58145111
       94.87029       64.91804787        0.51353163
       94.96998       61.65182978        0.50650225
       95.06967       61.79702227        0.58459185
       95.16937       61.06147855        0.79537263
       95.26906       60.85255268        0.61337222
       95.36875       59.21466526        0.54887660
       95.46845       59.47423965        0.52867387
       95.56814       57.46520729        0.59777088
       95.66783       57.68029086        0.67284919
       95.76753       56.77446360        0.55154944
       95.86722       55.17467203        0.46237268
       95.96691       55.12016872        0.47935570
       96.06661       54.14021078        0.60847819
       96.16630       52.95390915        0.64159957
       96.26599       52.39927298        0.57311756
       96.36569       51.92833894        0.51188862
       96.46538       50.62467150        0.48766683
       96.56507       48.27790800        0.58755212
       96.66477       48.79435591        0.57563329
       96.76446       47.33008595        0.50649059
       96.86415       49.20811847        0.44748457
       96.96385       49.51436362        0.46364224
       97.06354       50.18944780        0.63127265
       97.16323       50.07832839        0.60291633
       97.26293       51.21723542        0.57295787
       97.36262       50.62983603        0.52747214
       97.46231       50.33018563        0.48380178
       97.56201       50.85799993        0.61878901
       97.66170       52.03705124        0.56230887
       97.76139       52.83405176        0.51481932
       97.86109       53.68417008        0.46932434
       97.96078       54.67901313        0.48408306
       98.06047       55.62405283        0.67827896
       98.16017       56.01986698        0.60514785
       98.25986       55.00529539        0.57266494
       98.35956       54.53216986        0.53827279
       98.45925       56.24484761        0.51040192
       98.55894       58.18167843        0.67739082
       98.65864       59.65942678        0.58869496
       98.75833       61.21437197        0.55732787
       98.85802       65.06316499        0.53685291
       98.95772       66.88349820        0.54084772
       99.05741       70.39396226        0.77074768
       99.15710       71.95692089        0.67033926
       99.25680       76.15913419        0.66860784
       99.35649       79.05541774        0.64911591
       99.45618       83.09035160        0.62059185
       99.55588       85.95382027        0.84380607
       99.65557       86.91049421        0.70010780
       99.75526       88.62112544        0.66280875
       99.85496       88.65485326        0.63097013
       99.95465       88.74277327        0.61890636
      100.05434       93.57189327        0.90610122
      100.15404       91.58165767        0.75478593
      100.25373       92.21135692        0.74838667
      100.35342       90.26285000        0.73729753
      100.45312       89.07775729        0.66821819
      100.55281       87.38060255        0.86899030
      100.65250       85.67446675        0.70078178
      100.75220       81.08726624        0.63100824
      100.85189       76.31388964        0.58443464
      100.95158       73.78878680        0.55908688
      101.05128       72.15348808        0.78798643
      101.15097       71.81999378        0.64970920
      101.25066       70.77800799        0.63713219
      101.35036       72.84842535        0.65221988
      101.45005       73.89020306        0.61780468
      101.54974       73.20138089        0.76581057
      101.64944       75.58240860        0.63514655
      101.74913       79.35946563        0.61361436
      101.84882       82.50549887        0.60935804
      101.94852       87.04050073        0.65979486
      102.04821       87.10640249        0.79501226
      102.14791       89.62779697        0.72709833
      102.24760       91.69382940        0.72947817
      102.34729       91.05025768        0.72386734
      102.44699       91.89022568        0.73994828
      102.54668       93.13119485        0.78183384
      102.64637       93.89931650        0.70123923
      102.74607       95.66292880        0.67428355
      102.84576       94.88278995        0.65868927
      102.94545       95.85505206        0.75417348
      103.04515       95.08243033        0.79505858
      103.14484       94.91960226        0.74217058
      103.24453       92.17646408        0.71974652
      103.34423       89.62171370        0.70364951
      103.44392       89.73257338        0.76269944
      103.54361       88.23914601        0.73454285
      103.64331       86.88553438        0.66332738
      103.74300       85.17286066        0.62627399
      103.84269       83.11850756        0.60775121
      103.94239       81.48971201        0.72295304
      104.04208       79.64280716        0.69122106
      104.14177       80.16961084        0.67477790
      104.24147       79.94325952        0.67345574
      104.34116       81.04104683        0.68240233
      104.44085       81.75965455        0.77856812
      104.54055       81.01378206        0.70159567
      104.64024       80.08524780        0.65560119
      104.73993       77.98344833        0.61712945
      104.83963       74.78807863        0.58193648
      104.93932       72.90863579        0.69633251
      105.03901       72.89425413        0.65605144
      105.13871       70.04088706        0.61890657
      105.23840       67.47542567        0.60684874
      105.33809       66.47829612        0.60579961
      105.43779       63.08296618        0.68623356
      105.53748       61.71550662        0.60855706
      105.63717       59.09968704        0.54561751
      105.73687       56.89975406        0.50930550
      105.83656       55.15745391        0.48847411
      105.93626       53.86670787        0.61159582
      106.03595       53.41558060        0.55193667
      106.13564       52.86409153        0.53064427
      106.23534       52.41816652        0.53486692
      106.33503       50.46655630        0.52993790
      106.43472       48.95835411        0.61691340
      106.53442       48.41964848        0.53358396
      106.63411       47.94355356        0.48227951
      106.73380       48.56253203        0.46266528
      106.83350       48.99783727        0.45783056
      106.93319       49.49041639        0.59652064
      107.03288       51.17367041        0.53776019
      107.13258       51.01841267        0.52116437
      107.23227       50.76010618        0.52736426
      107.33196       52.62707178        0.53567459
      107.43166       53.40666436        0.64847354
      107.53135       54.11078101        0.56324710
      107.63104       56.83510878        0.52587162
      107.73074       58.68395123        0.51283151
      107.83043       61.89263048        0.52029642
      107.93012       63.07174001        0.69495023
      108.02982       65.56691399        0.62044401
      108.12951       66.21952755        0.59301270
      108.22920       67.49218902        0.58921387
      108.32890       68.90256257        0.58980596
      108.42859       71.72473063        0.76410314
      108.52828       71.53408954        0.64726601
      108.62798       73.20995988        0.59391898
      108.72767       75.01325753        0.57722098
      108.82736       75.01722275        0.58995540
      108.92706       74.17366541        0.74285355
      109.02675       73.89541935        0.64862118
      109.12644       72.79091640        0.62819469
      109.22614       74.28833821        0.63528645
      109.32583       73.84598267        0.69014797
      109.42552       73.41485138        0.72579491
      109.52522       70.68305279        0.64220894
      109.62491       68.97687857        0.60325410
      109.72461       66.56885830        0.56635321
      109.82430       63.16682621        0.51504987
      109.92399       61.97626972        0.66318329
      110.02369       60.04846870        0.57146033
      110.12338       58.87425421        0.56204430
      110.22307       57.69354625        0.55210320
      110.32277       55.81026013        0.55432795
      110.42246       55.98205340        0.67505612
      110.52215       55.35925048        0.56849781
      110.62185       53.73067224        0.52769640
      110.72154       52.33340817        0.48575425
      110.82123       52.86105715        0.50423749
      110.92093       52.70223151        0.58720511
      111.02062       53.40564752        0.54616681
      111.12031       53.82815312        0.55245759
      111.22001       54.45067940        0.54529283
      111.31970       54.65177389        0.59290585
      111.41939       56.41274640        0.62351630
      111.51909       55.97546963        0.56352527
      111.61878       58.94843383        0.54504599
      111.71847       60.76369302        0.51501329
      111.81817       63.81533989        0.57313638
      111.91786       66.29077630        0.61500489
      112.01755       68.79120528        0.61200188
      112.11725       69.51473956        0.61994884
      112.21694       73.24870564        0.63393111
      112.31663       74.57892538        0.70503656
      112.41633       76.58502952        0.70211594
      112.51602       79.59423990        0.65948311
      112.61571       81.84482351        0.63817493
      112.71541       85.77191708        0.61608274
      112.81510       87.84413840        0.69933983
      112.91479       88.45664934        0.71493858
      113.01449       88.99747688        0.70230652
      113.11418       89.38327011        0.70152102
      113.21387       89.63878942        0.69935778
      113.31357       91.52462742        0.78507182
      113.41326       92.08632585        0.74844872
      113.51296       92.37065923        0.70514894
      113.61265       94.12784397        0.68704566
      113.71234       93.02205659        0.65225771
      113.81204       92.78249381        0.74625720
      113.91173       91.02295297        0.71603214
      114.01142       90.22843395        0.70562361
      114.11112       86.16065213        0.68868850
      114.21081       86.40555070        0.69468412
      114.31050       84.59708476        0.77926967
      114.41020       83.24826641        0.71415937
      114.50989       81.22493764        0.66016610
      114.60958       79.61486017        0.63231456
      114.70928       75.79895556        0.59466911
      114.80897       73.05891574        0.66184941
      114.90866       72.59460249        0.62222127
      115.00836       70.27486494        0.60909410
      115.10805       70.15241090        0.61186499
      115.20774       69.46251386        0.61798919
      115.30744       68.50239104        0.70452703
      115.40713       69.35391355        0.64218016
      115.50682       69.63927351        0.60754351
      115.60652       70.78671390        0.59045420
      115.70621       70.41505098        0.56594103
      115.80590       73.70661079        0.67585399
      115.90560       73.75387573        0.61277283
      116.00529       76.97580498        0.63335013
      116.10498       79.46589756        0.65051498
      116.20468       84.03924201        0.68486886
      116.30437       87.99374829        0.83595970
      116.40406       90.54975135        0.73890796
      116.50376       95.61616254        0.71815487
      116.60345      102.45931558        0.71445072
      116.70314      113.62863798        0.73094870
      116.80284      121.53256486        0.89941140
      116.90253      128.78069036        0.83386461
      117.00222      137.31922560        0.85548583
      117.10192      144.41579280        0.90189494
      117.20161      151.13253885        0.93491559
      117.30131      152.02470572        1.12220509
      117.40100      158.24673057        0.96355556
      117.50069      166.19128032        0.93908299
      117.60039      173.70123120        0.91993783
      117.70008      178.44404572        0.90401284
      117.79977      186.80841594        1.13501348
      117.89947      188.69278376        0.99197460
      117.99916      190.85823348        1.00990933
      118.09885      192.97611427        1.03489972
      118.19855      192.27878110        1.08185612
      118.29824      196.48832127        1.19974524
      118.39793      198.67333367        1.09571064
      118.49763      199.80232556        1.03707622
      118.59732      201.88234078        1.00681942
      118.69701      195.93088694        1.03225539
      118.79671      190.47226454        1.09796904
      118.89640      189.76594049        1.02167692
      118.99609      183.02621140        1.00117728
      119.09579      178.45510033        0.99935996
      119.19548      174.55506886        1.07926392
      119.29517      168.92834881        1.10202030
      119.39487      161.45245516        0.98914393
      119.49456      157.73866624        0.92078056
      119.59425      149.04964720        0.86798064
      119.69395      141.77141436        0.89199989
      119.79364      138.28457070        0.88979970
      119.89333      133.88428328        0.84672495
      119.99303      129.76475040        0.81332131
      120.09272      127.80874124        0.82529156
      120.19241      125.88773553        0.92034714
      120.29211      124.72650135        0.90657363
      120.39180      121.60621921        0.85357229
      120.49149      121.97551958        0.79511938
      120.59119      119.27252103        0.76280216
      120.69088      116.70612212        0.81192443
      120.79057      115.46028823        0.79007545
      120.89027      116.21208151        0.77829042
      120.98996      115.55344485        0.77003131
      121.08966      117.00020999        0.78082898
      121.18935      117.16071703        0.89567039
      121.28904      117.52863861        0.87438918
      121.38874      117.80633687        0.82787588
      121.48843      118.60762350        0.78469722
      121.58812      118.79335722        0.74901265
      121.68782      120.11577055        0.83457178
      121.78751      123.04465118        0.80530329
      121.88720      123.23029525        0.79563164
      121.98690      122.63749401        0.79958240
      122.08659      121.12685481        0.81034865
      122.18628      119.95955577        0.93532667
      122.28598      118.63057865        0.87448858
      122.38567      116.43826409        0.82944424
      122.48536      116.81028991        0.78590099
      122.58506      114.65010328        0.73714610
      122.68475      113.57689465        0.83124924
      122.78444      111.29756753        0.77451896
      122.88414      108.36219492        0.75737158
      122.98383      104.40143545        0.75812209
      123.08352      102.56637850        0.74477146
      123.18322      100.23268721        0.85835862
      123.28291      100.16492493        0.77984423
      123.38260       98.73841134        0.74727234
      123.48230       96.96472018        0.71351609
      123.58199       94.60253428        0.65846507
      123.68168       94.11034756        0.74935672
      123.78138       92.68135856        0.67075705
      123.88107       90.96161368        0.64894975
      123.98076       88.38516108        0.65123910
      124.08046       86.23031706        0.63623904
      124.18015       85.59713262        0.71740776
      124.27984       84.48752650        0.63844931
      124.37954       82.69262617        0.59584374
      124.47923       79.69754155        0.57076914
      124.57893       75.05707112        0.58965639
