        5.04651       55.32312940        1.14305615
        5.14621       54.40948962        1.09231541
        5.24590       52.41805103        1.05639928
        5.34559       50.31668190        0.94892637
        5.44529       50.19809513        1.03110718
        5.54498       49.43006472        0.86056900
        5.64467       51.28290950        0.86916777
        5.74437       49.17849034        0.76803962
        5.84406       50.73927379        0.78970572
        5.94375       49.79824384        0.78117203
        6.04345       48.88296557        0.75192747
        6.14314       49.04531814        0.68963581
        6.24283       48.86115446        0.71103949
        6.34253       48.37554346        0.67474960
        6.44222       47.83842062        0.70646568
        6.54191       47.62617364        0.66775667
        6.64161       48.30901331        0.63718596
        6.74130       48.36817770        0.64015789
        6.84099       48.23210887        0.63461349
        6.94069       47.87359924        0.64173096
        7.04038       47.83194018        0.59210195
        7.14007       46.68367916        0.58362240
        7.23977       47.53872320        0.57873201
        7.33946       47.56734749        0.58777061
        7.43915       46.34237808        0.57246077
        7.53885       46.50238606        0.56288342
        7.63854       47.76718012        0.54537843
        7.73823       47.05320688        0.56198093
        7.83793       47.03974189        0.54375640
        7.93762       46.60818773        0.56456596
        8.03732       45.93049709        0.50256389
        8.13701       46.57035181        0.50382415
        8.23670       45.58644165        0.50542071
        8.33640       46.73229943        0.51197597
        8.43609       46.18439738        0.53205201
        8.53578       46.29465107        0.49617608
        8.63548       45.92572683        0.48848361
        8.73517       46.11935752        0.48019864
        8.83486       46.71249083        0.48450353
        8.93456       46.79757164        0.48246100
        9.03425       45.85096572        0.46349596
        9.13394       46.79291071        0.46919111
        9.23364       45.70362097        0.47037917
        9.33333       45.96767722        0.48136276
        9.43302       46.43228748        0.48400841
        9.53272       45.90839992        0.46496781
        9.63241       46.53533756        0.48141628
        9.73210       46.10992829        0.47821482
        9.83180       47.26219978        0.50458525
        9.93149       46.32421843        0.49589636
       10.03118       46.22837282        0.47664524
       10.13088       46.31851148        0.46568449
       10.23057       47.00785364        0.49134090
       10.33026       46.08327477        0.50278355
       10.42996       47.59090120        0.50407324
       10.52965       46.31035579        0.48145153
       10.62934       47.33302214        0.48799462
       10.72904       46.89030271        0.49285243
       10.82873       47.98799889        0.49617008
       10.92842       48.24993846        0.50588484
       11.02812       48.19997212        0.48170824
       11.12781       49.16883604        0.50406207
       11.22750       48.55416785        0.50583782
       11.32720       49.47904916        0.52445187
       11.42689       50.48673681        0.51147486
       11.52658       52.84262783        0.51724769
       11.62628       54.29109336        0.53011083
       11.72597       56.34082004        0.55169118
       11.82567       60.24678093        0.58675555
       11.92536       63.65792390        0.56476103
       12.02505       69.50935953        0.59349409
       12.12475       74.14292172        0.61288824
       12.22444       83.17331603        0.68939399
       12.32413       95.85177388        0.75295547
       12.42383      107.00638189        0.75649237
       12.52352      124.17398382        0.81212633
       12.62321      146.48664001        0.91032220
       12.72291      172.27416101        0.96447357
       12.82260      196.73305180        1.12447497
       12.92229      219.01877819        1.08106556
       13.02199      248.21744762        1.14658954
       13.12168      273.33627447        1.22831067
       13.22137      301.00182809        1.33574661
       13.32107      327.53072199        1.44328163
       13.42076      349.73586363        1.43965813
       13.52045      367.82507349        1.49760985
       13.62015      366.97874453        1.44931431
       13.71984      349.54639625        1.47058962
       13.81953      320.36650666        1.42615822
       13.91923      280.18602432        1.24608036
       14.01892      219.40770013        1.06461150
       14.11861      167.80863933        0.96446343
       14.21831      133.48547573        0.85693261
       14.31800      106.00709551        0.80075562
       14.41769       81.81076681        0.67500208
       14.51739       69.75316929        0.60700309
       14.61708       60.36124788        0.56526327
       14.71677       53.98811278        0.54276401
       14.81647       51.44012966        0.55478391
       14.91616       49.99519149        0.50285456
       15.01585       49.38738548        0.50874803
       15.11555       48.78235225        0.51142925
       15.21524       48.99567871        0.52827724
       15.31493       47.10169736        0.53028215
       15.41463       46.69544732        0.51117842
       15.51432       46.89175766        0.49639677
       15.61402       46.52780913        0.50695556
       15.71371       46.38348343        0.50267925
       15.81340       46.49745165        0.52358606
       15.91310       45.64572881        0.50399003
       16.01279       46.63974059        0.48787587
       16.11248       47.37223136        0.50496019
       16.21218       46.70739727        0.51523975
       16.31187       47.22224566        0.51938493
       16.41156       47.45063627        0.51096511
       16.51126       47.20032463        0.51820984
       16.61095       48.36084974        0.50588024
       16.71064       49.49018182        0.52803607
       16.81034       51.17832402        0.53874931
       16.91003       51.22598965        0.52346003
       17.00972       53.57278464        0.51410996
       17.10942       57.10773993        0.56136578
       17.20911       60.27969503        0.58215108
       17.30880       63.72228681        0.60408924
       17.40850       68.61284113        0.62721040
       17.50819       72.57608935        0.62678342
       17.60788       75.11678785        0.65774067
       17.70758       75.96685705        0.66427394
       17.80727       72.79871589        0.65794433
       17.90696       71.14547090        0.60796742
       18.00666       67.83031194        0.60371606
       18.10635       63.12043809        0.56601227
       18.20604       59.93196281        0.60471659
       18.30574       56.11644660        0.55732320
       18.40543       54.75228108        0.53676188
       18.50512       53.96918694        0.54965457
       18.60482       52.25128616        0.53219495
       18.70451       51.57269914        0.55867286
       18.80420       49.94443575        0.51633619
       18.90390       50.21753380        0.51224324
       19.00359       50.02817842        0.49789544
       19.10328       48.46043020        0.51830697
       19.20298       47.56776805        0.52940752
       19.30267       46.74390681        0.50390664
       19.40237       46.83237790        0.49868247
       19.50206       45.85822501        0.50578974
       19.60175       45.28745613        0.49694683
       19.70145       45.77455565        0.52393419
       19.80114       44.93857786        0.49229000
       19.90083       45.22001945        0.47716390
       20.00053       46.08695690        0.49033751
       20.10022       45.72033595        0.49197920
       20.19991       47.51024492        0.53634444
       20.29961       47.74292588        0.50945272
       20.39930       48.30452453        0.52797215
       20.49899       50.36641387        0.52994640
       20.59869       49.50931685        0.53494486
       20.69838       50.68673935        0.56134311
       20.79807       52.80994647        0.54670924
       20.89777       54.20178799        0.54146736
       20.99746       54.91878483        0.55052465
       21.09715       56.02902313        0.58582284
       21.19685       56.93025866        0.58752950
       21.29654       57.86523614        0.57791247
       21.39623       56.40603319        0.57046490
       21.49593       55.65211015        0.55846777
       21.59562       53.51532849        0.56062110
       21.69531       50.00426266        0.56332327
       21.79501       48.21767895        0.50588176
       21.89470       47.17164452        0.48901642
       21.99439       46.34714825        0.50520266
       22.09409       45.08143377        0.49938118
       22.19378       44.89703902        0.52923550
       22.29347       46.48323732        0.50167036
       22.39317       45.22238992        0.50752706
       22.49286       46.10021292        0.51209788
       22.59255       47.57497560        0.52647641
       22.69225       49.80767686        0.56789104
       22.79194       51.51477379        0.51883935
       22.89163       53.67139234        0.51942822
       22.99133       59.69664583        0.56358842
       23.09102       63.01544702        0.60170597
       23.19072       67.53116098        0.62484886
       23.29041       70.88294138        0.63256278
       23.39010       70.77160983        0.63867517
       23.48980       69.93139768        0.63708524
       23.58949       66.58984895        0.62965136
       23.68918       63.78215280        0.64769521
       23.78888       58.36407738        0.55164750
       23.88857       53.33993257        0.53380550
       23.98826       49.54357935        0.52560372
       24.08796       47.35126005        0.50363946
       24.18765       44.98259591        0.52576591
       24.28734       45.92291110        0.50586841
       24.38704       44.62943987        0.50691414
       24.48673       44.45305935        0.50408676
       24.58642       44.32839380        0.52002401
       24.68612       43.59349815        0.51494815
       24.78581       44.53674765        0.47988174
       24.88550       43.81037448        0.47569815
       24.98520       45.40902635        0.50235362
       25.08489       45.55045103        0.51319408
       25.18458       45.97811298        0.52646751
       25.28428       45.86191334        0.50676851
       25.38397       48.73614185        0.52012940
       25.48366       50.99449812        0.53543679
       25.58336       54.87643597        0.57932634
       25.68305       62.17749564        0.60556072
       25.78274       69.59420706        0.60539829
       25.88244       82.82430391        0.67855697
       25.98213      104.60135582        0.77145894
       26.08182      126.47336259        0.87346614
       26.18152      148.63503133        0.97303024
       26.28121      173.74713089        0.99886954
       26.38090      190.25462569        1.05665058
       26.48060      197.65937529        1.10804185
       26.58029      188.50701593        1.12735870
       26.67998      173.12230486        1.01816923
       26.77968      147.22872870        0.92424387
       26.87937      116.86123771        0.80789377
       26.97907       95.82297121        0.72313764
       27.07876       81.24475554        0.71531681
       27.17845       77.94992521        0.66924169
       27.27815       78.01906419        0.65385289
       27.37784       81.19079583        0.69336060
       27.47753       85.10273671        0.69984316
       27.57723       84.15009333        0.72888751
       27.67692       83.26950965        0.70762399
       27.77661       76.99622071        0.64879134
       27.87631       69.36636017        0.60482860
       27.97600       62.21549256        0.58504087
       28.07569       56.37809395        0.58886854
       28.17539       51.72358068        0.53954923
       28.27508       50.17325123        0.53150014
       28.37477       49.09004931        0.53814431
       28.47447       49.48675382        0.53613142
       28.57416       50.50361129        0.58565090
       28.67385       50.91546988        0.52319927
       28.77355       52.80222324        0.52335896
       28.87324       54.89314018        0.54802848
       28.97293       56.78665241        0.55888278
       29.07263       57.40228772        0.61256861
       29.17232       56.97837976        0.55691365
       29.27201       54.64660478        0.55525340
       29.37171       52.85636887        0.56158933
       29.47140       50.98722409        0.54503131
       29.57109       49.93961492        0.57188228
       29.67079       48.01714995        0.51034735
       29.77048       46.49937276        0.50324932
       29.87017       45.82731700        0.48973622
       29.96987       46.30233176        0.51619936
       30.06956       46.78010010        0.53533885
       30.16925       46.81838475        0.50426398
       30.26895       46.94677127        0.50689520
       30.36864       47.52147684        0.51837420
       30.46833       50.12856844        0.53804144
       30.56803       52.41838573        0.58141522
       30.66772       55.12835405        0.55511572
       30.76742       59.09415163        0.56361139
       30.86711       61.11934875        0.58480821
       30.96680       62.55756328        0.59521277
       31.06650       61.90686704        0.62078798
       31.16619       60.73774208        0.57803712
       31.26588       57.76918802        0.56006354
       31.36558       56.67019304        0.56187055
       31.46527       56.95793585        0.58614536
       31.56496       59.07830923        0.60676345
       31.66466       62.27381655        0.58289810
       31.76435       68.84899146        0.61294005
       31.86404       77.38925096        0.64220962
       31.96374       84.45253405        0.68723621
       32.06343       86.54632942        0.72019006
       32.16312       87.19705811        0.67944479
       32.26282       82.99653871        0.67861283
       32.36251       78.93909109        0.68785633
       32.46220       74.42457383        0.67938522
       32.56190       69.93756457        0.66977582
       32.66159       69.23526279        0.63278489
       32.76128       65.66380152        0.60205560
       32.86098       64.73610155        0.60666942
       32.96067       63.88318510        0.61012092
       33.06036       61.28776567        0.60823030
       33.16006       58.48411573        0.55927923
       33.25975       56.92206997        0.56953085
       33.35944       55.69442605        0.56628837
       33.45914       56.72265927        0.59333519
       33.55883       57.48828907        0.59880284
       33.65852       60.14450922        0.57138749
       33.75822       64.71557040        0.59212051
       33.85791       72.12821281        0.62841643
       33.95760       81.32157587        0.68798819
       34.05730       91.53543202        0.72399251
       34.15699      105.53426306        0.76671398
       34.25668      121.71489218        0.82255514
       34.35638      149.05543531        0.93765822
       34.45607      187.27922950        1.11317632
       34.55577      226.64910023        1.17331248
       34.65546      291.10919411        1.28660344
       34.75515      361.64051416        1.47497766
       34.85485      420.01911633        1.58940282
       34.95454      443.39858388        1.68936856
       35.05423      434.58069109        1.72795509
       35.15393      390.70389898        1.53001031
       35.25362      322.79550733        1.39998358
       35.35331      252.77062513        1.25922706
       35.45301      193.32116833        1.13966999
       35.55270      146.97991138        0.96114110
       35.65239      111.34607096        0.80364106
       35.75209       89.79663117        0.71402152
       35.85178       79.05921118        0.66792648
       35.95147       72.65201221        0.65468077
       36.05117       69.07550829        0.62486303
       36.15086       65.65559901        0.58543517
       36.25055       64.10762044        0.60423917
       36.35025       60.42363012        0.59773592
       36.44994       59.80196818        0.60647968
       36.54963       58.57627400        0.57607813
       36.64933       57.32380862        0.56126155
       36.74902       56.15873457        0.56122089
       36.84871       53.79700315        0.54510734
       36.94841       52.73493499        0.58354547
       37.04810       51.10612288        0.50638832
       37.14779       50.11575297        0.51165252
       37.24749       49.74721817        0.52391462
       37.34718       47.79497247        0.52645288
       37.44687       48.24601600        0.56822126
       37.54657       47.90456755        0.51687918
       37.64626       47.85801990        0.51464292
       37.74595       47.69121960        0.50569798
       37.84565       46.93444561        0.53074200
       37.94534       46.05728971        0.53553358
       38.04503       47.21300963        0.49016289
       38.14473       46.90350638        0.49331480
       38.24442       47.99488938        0.50823790
       38.34412       47.60030760        0.52913062
       38.44381       49.07257169        0.58107411
       38.54350       48.72649410        0.51611547
       38.64320       48.36547440        0.51260923
       38.74289       51.41945216        0.53574246
       38.84258       52.12242475        0.54076244
       38.94228       55.30797034        0.58458638
       39.04197       58.88576158        0.54424246
       39.14166       64.52255947        0.59319762
       39.24136       66.71207643        0.60176939
       39.34105       69.55691951        0.63619782
       39.44074       70.93318135        0.70093724
       39.54044       71.16082171        0.62776092
       39.64013       69.67877507        0.61913751
       39.73982       66.11946410        0.60519491
       39.83952       63.03028693        0.58658920
       39.93921       61.00326511        0.61168023
       40.03890       58.53276111        0.54822339
       40.13860       57.52890963        0.54270652
       40.23829       56.55856858        0.55705392
       40.33798       56.37718502        0.57347899
       40.43768       56.57011338        0.60106108
       40.53737       54.94031300        0.54961194
       40.63706       56.10779106        0.56719728
       40.73676       57.99512448        0.57593038
       40.83645       59.79770417        0.58987810
       40.93614       61.50732194        0.60845240
       41.03584       67.43697014        0.60016746
       41.13553       77.07020643        0.64334146
       41.23522       94.20893730        0.73057113
       41.33492      115.82471856        0.85084892
       41.43461      140.16463731        0.96958409
       41.53430      163.28683335        0.98339176
       41.63400      190.62112562        1.09012606
       41.73369      209.17708138        1.12004434
       41.83338      217.10178458        1.17289797
       41.93308      218.92249850        1.16762693
       42.03277      227.10425046        1.08833196
       42.13247      251.54529407        1.20812914
       42.23216      298.62212467        1.32741642
       42.33185      355.91433439        1.56737994
       42.43155      416.07798282        1.68248100
       42.53124      473.66178643        1.75036203
       42.63093      512.94286499        1.83330611
       42.73063      522.26450816        1.85978923
       42.83032      512.86792073        1.87368710
       42.93001      485.92846776        1.75002149
       43.02971      425.98942821        1.53681981
       43.12940      348.46093890        1.40434770
       43.22909      272.98832719        1.29347888
       43.32879      209.69782638        1.18381152
       43.42848      161.19238316        1.00804239
       43.52817      118.16747164        0.82042411
       43.62787       91.71754458        0.71746068
       43.72756       75.63914174        0.66527260
       43.82725       67.07911397        0.65328730
       43.92695       60.68625886        0.56288372
       44.02664       57.84855590        0.54668561
       44.12633       55.44629388        0.55493981
       44.22603       55.53729543        0.57810082
       44.32572       53.97453622        0.60049989
       44.42541       53.63135845        0.57146900
       44.52511       53.61145786        0.55599292
       44.62480       54.81522872        0.57026661
       44.72449       57.93086893        0.56842733
       44.82419       60.64489549        0.65290253
       44.92388       65.85601673        0.56792764
       45.02357       75.35508164        0.61342991
       45.12327       89.48783568        0.69010091
       45.22296      109.20568833        0.78484618
       45.32265      132.90838682        0.96128752
       45.42235      152.54233834        0.94038165
       45.52204      180.53029072        1.01692077
       45.62174      204.39083710        1.10545272
       45.72143      217.00122247        1.14086913
       45.82112      223.87634861        1.26968390
       45.92082      222.37040637        1.07395468
       46.02051      218.17068790        1.08577425
       46.12020      217.30588158        1.08716125
       46.21990      210.22946908        1.12265087
       46.31959      198.35813154        1.17567412
       46.41928      184.78310514        1.04613397
       46.51898      162.18802632        0.98230027
       46.61867      135.05618592        0.88818873
       46.71836      111.10874238        0.82322743
       46.81806       91.52239925        0.77230912
       46.91775       75.39025477        0.60937892
       47.01744       67.51025506        0.58963332
       47.11714       67.17751612        0.60157658
       47.21683       70.46554963        0.63459621
       47.31652       78.74612918        0.73284264
       47.41622       89.72237214        0.73846028
       47.51591      104.44554230        0.80003803
       47.61560      119.01591732        0.84871822
       47.71530      132.97459012        0.90863963
       47.81499      143.01993585        0.96739663
       47.91468      155.70464140        0.88464886
       48.01438      164.35268085        0.91042570
       48.11407      170.54696730        0.96303135
       48.21376      168.60935438        0.99942700
       48.31346      165.70936511        1.02569458
       48.41315      154.86544132        0.92276125
       48.51284      142.82064155        0.91405321
       48.61254      125.49166063        0.85111201
       48.71223      110.00803780        0.80945754
       48.81192       96.66346759        0.75543778
       48.91162       80.03844388        0.61458940
       49.01131       66.43562643        0.57827726
       49.11100       59.77142165        0.56764825
       49.21070       54.84168163        0.57038355
       49.31039       52.65123636        0.57497246
       49.41009       49.97444748        0.52893788
       49.50978       49.94627805        0.53972831
       49.60947       48.89951724        0.53785411
       49.70917       48.32411866        0.55445077
       49.80886       48.72039635        0.54186328
       49.90855       48.73481494        0.49367692
       50.00825       49.21418141        0.50661958
       50.10794       49.60443168        0.52023501
       50.20763       51.58115329        0.55443938
       50.30733       52.25145351        0.58459800
       50.40702       53.32344402        0.55391443
       50.50671       53.13075615        0.55451790
       50.60641       56.60400736        0.57351198
       50.70610       57.00124065        0.59223047
       50.80579       56.52376767        0.58191424
       50.90549       56.91028944        0.52647098
       51.00518       55.26613543        0.52326087
       51.10487       55.61466425        0.54262603
       51.20457       55.25728839        0.57577936
       51.30426       56.28921517        0.57821132
       51.40395       57.37071544        0.55971951
       51.50365       58.88582184        0.57368922
       51.60334       60.27211281        0.59200737
       51.70303       60.35749767        0.62913309
       51.80273       60.35265641        0.57706140
       51.90242       61.59161102        0.54477682
       52.00211       61.70748525        0.54787867
       52.10181       62.56396130        0.56921248
       52.20150       62.91000853        0.62862707
       52.30119       62.25103455        0.60230726
       52.40089       62.21586064        0.59270483
       52.50058       61.11395009        0.59841616
       52.60027       61.51402612        0.60861401
       52.69997       61.30310963        0.66581766
       52.79966       62.27970797        0.56431012
       52.89935       66.37717744        0.56251622
       52.99905       75.17849329        0.60932715
       53.09874       87.70250608        0.68073704
       53.19844       98.17584191        0.82612978
       53.29813      111.52516172        0.78413152
       53.39782      122.50174206        0.85157018
       53.49752      131.14214395        0.88622367
       53.59721      138.93677121        0.91254619
       53.69690      141.92573338        1.01242015
       53.79660      148.81824380        0.86939749
       53.89629      147.25065659        0.85525518
       53.99598      142.98516990        0.86281064
       54.09568      135.34136278        0.87557101
       54.19537      125.48449074        0.91807503
       54.29506      116.91078018        0.81303333
       54.39476      107.12646038        0.78309458
       54.49445       99.24306361        0.75332283
       54.59414       92.53858649        0.73770633
       54.69384       88.82964683        0.77058720
       54.79353       87.78069726        0.65678757
       54.89322       84.03376249        0.63990448
       54.99292       80.18458281        0.64297108
       55.09261       75.17594045        0.64689331
       55.19230       70.85702875        0.67395851
       55.29200       66.69095542        0.60814251
       55.39169       62.74937894        0.60827243
       55.49138       59.22677943        0.58841224
       55.59108       57.12939985        0.59622280
       55.69077       56.56594175        0.60880256
       55.79046       55.34081829        0.52635720
       55.89016       54.77546811        0.52235940
       55.98985       56.59134354        0.53451894
       56.08954       60.63145671        0.57190056
       56.18924       65.37033580        0.64137959
       56.28893       72.08967441        0.61712391
       56.38862       83.05367321        0.68640405
       56.48832       94.76446617        0.74722261
       56.58801      105.23607182        0.81154551
       56.68770      112.65248706        0.86762826
       56.78740      116.96593166        0.75714869
       56.88709      115.89662111        0.76106625
       56.98679      107.79304840        0.73366541
       57.08648       95.28393376        0.72972887
       57.18617       85.24604495        0.71353176
       57.28587       74.29550297        0.62127577
       57.38556       65.96805961        0.62235067
       57.48525       60.45282783        0.60667157
       57.58495       56.20371254        0.59795018
       57.68464       53.65800159        0.58909798
       57.78433       53.01377206        0.51218669
       57.88403       51.60500527        0.51110194
       57.98372       51.21937220        0.51726222
       58.08341       51.81532854        0.56258304
       58.18311       52.71788520        0.58056699
       58.28280       53.24490884        0.54960644
       58.38249       53.05389760        0.57323699
       58.48219       53.04112741        0.58554338
       58.58188       51.60231526        0.58371744
       58.68157       52.60989774        0.57765181
       58.78127       52.65997532        0.50551838
       58.88096       53.64923726        0.50280234
       58.98065       55.57936910        0.53143133
       59.08035       55.33531883        0.56579343
       59.18004       57.27369629        0.58410483
       59.27973       58.87902448        0.55891674
       59.37943       61.85010580        0.59202583
       59.47912       65.60139599        0.63510742
       59.57881       72.49802054        0.70024293
       59.67851       76.52432898        0.67116530
       59.77820       84.63546672        0.64973215
       59.87789       91.88389568        0.67536119
       59.97759      100.33287440        0.73925494
       60.07728      105.11727865        0.82003847
       60.17697      107.59158396        0.79064281
       60.27667      109.47208113        0.77562160
       60.37636      107.06994021        0.78162413
       60.47605      104.17319608        0.80392723
       60.57575      100.75519005        0.86601292
       60.67544       93.40462958        0.71550226
       60.77514       86.79322683        0.65500161
       60.87483       77.36754743        0.60547806
       60.97452       71.58725010        0.61299742
       61.07422       68.59094392        0.67373241
       61.17391       65.92864700        0.57191290
       61.27360       65.15867871        0.58867502
       61.37330       67.19360696        0.62018508
       61.47299       69.52579367        0.65884620
       61.57268       68.97569503        0.74618447
       61.67238       70.67028245        0.61576210
       61.77207       71.56416851        0.60358086
       61.87176       70.42863553        0.59198585
       61.97146       70.53961202        0.61510368
       62.07115       69.16324333        0.68965257
       62.17084       69.51237101        0.60578073
       62.27054       68.42853414        0.62657804
       62.37023       67.90656746        0.64899121
       62.46992       68.85243792        0.67600367
       62.56962       69.75632763        0.76433978
       62.66931       72.05027889        0.62603586
       62.76900       78.46543323        0.63746454
       62.86870       86.59882030        0.65596590
       62.96839       95.64405527        0.71242853
       63.06808       99.94846433        0.81102195
       63.16778      105.84414090        0.74155624
       63.26747      110.25372284        0.78374221
       63.36716      112.26918695        0.82097944
       63.46686      114.85076285        0.85559733
       63.56655      117.23288632        0.91866378
       63.66624      127.23959483        0.81478098
       63.76594      139.09312802        0.82906353
       63.86563      153.79457533        0.87112924
       63.96532      165.42621594        0.94715398
       64.06502      171.93524795        1.03554990
       64.16471      174.69755369        0.96598795
       64.26440      166.22477654        0.97963678
       64.36410      154.31803738        0.96120176
       64.46379      140.63275759        0.96835295
       64.56349      126.18163715        0.93144515
       64.66318      108.64770626        0.75437745
       64.76287       90.48765822        0.67796446
       64.86257       75.80213657        0.61808118
       64.96226       64.89568723        0.59794815
       65.06195       61.42602091        0.62869009
       65.16165       55.49819173        0.53852474
       65.26134       53.49656576        0.54091660
       65.36103       53.29129775        0.56333140
       65.46073       54.39543985        0.58794935
       65.56042       53.50745487        0.60895035
       65.66011       56.18805432        0.54436989
       65.75981       57.60821852        0.54582623
       65.85950       58.78513642        0.54796410
       65.95919       62.22708464        0.59050354
       66.05889       63.98811157        0.61954881
       66.15858       69.39101052        0.61406262
       66.25827       76.24199411        0.66640549
       66.35797       84.94468212        0.73378282
       66.45766       96.77671781        0.83376457
       66.55735      106.40380948        0.87530731
       66.65705      121.14126211        0.83037097
       66.75674      135.22290173        0.85675965
       66.85643      149.99773058        0.89414397
       66.95613      163.18823638        0.97171669
       67.05582      169.40834033        0.99846310
       67.15551      170.46457874        0.95327741
       67.25521      167.05980605        0.99005971
       67.35490      154.19687740        0.99936254
       67.45459      141.32372320        1.00705430
       67.55429      127.34582445        0.91397784
       67.65398      106.53953413        0.74689654
       67.75367       91.09598401        0.68332702
       67.85337       79.89368700        0.64663851
       67.95306       76.01301350        0.67403293
       68.05275       75.07054378        0.63416388
       68.15245       79.16844578        0.64606160
       68.25214       85.98004062        0.71538869
       68.35184       92.56340777        0.77437764
       68.45153       99.30168421        0.88390061
       68.55122      104.47323388        0.78164037
       68.65092      114.80965941        0.76500266
       68.75061      124.10473228        0.80477348
       68.85030      127.70769506        0.83256716
       68.95000      128.90700903        0.94855383
       69.04969      126.31987308        0.79268266
       69.14938      116.90780105        0.78298900
       69.24908      104.50675763        0.78903455
       69.34877       95.57997835        0.77935979
       69.44846       87.70770498        0.86489820
       69.54816       78.86263594        0.63853052
       69.64785       68.93775623        0.58764545
       69.74754       61.83787609        0.56150375
       69.84724       55.48905611        0.54518650
       69.94693       54.23977344        0.60818787
       70.04662       50.64650121        0.48299055
       70.14632       48.01579129        0.48880357
       70.24601       47.11301617        0.51835310
       70.34570       46.27327000        0.54352735
       70.44540       47.43063264        0.64849345
       70.54509       47.89758308        0.51013178
       70.64478       48.29452591        0.51154803
       70.74448       49.54596663        0.52646042
       70.84417       50.27274971        0.55036105
       70.94386       50.41990056        0.60504111
       71.04356       51.53868030        0.50629251
       71.14325       51.87953314        0.52789565
       71.24294       53.13721208        0.56224618
       71.34264       52.60245242        0.59311176
       71.44233       53.55146399        0.66790228
       71.54202       54.01279486        0.54613684
       71.64172       53.64338283        0.52939919
       71.74141       51.88570876        0.51104993
       71.84110       51.85722490        0.52886926
       71.94080       52.00937197        0.57716251
       72.04049       50.99804642        0.48365324
       72.14019       51.56955676        0.50678646
       72.23988       51.31600829        0.52892790
       72.33957       52.10692595        0.59543316
       72.43927       52.40628631        0.65736698
       72.53896       52.33396561        0.52669589
       72.63865       52.83400273        0.51731987
       72.73835       54.51453647        0.51407566
       72.83804       55.90711399        0.54986752
       72.93773       57.15883933        0.59071059
       73.03743       59.14606099        0.52175932
       73.13712       62.52286817        0.56605438
       73.23681       62.08031446        0.59253741
       73.33651       63.64253758        0.66033105
       73.43620       62.35250780        0.70778834
       73.53589       63.34407771        0.57558606
       73.63559       64.73342199        0.57286462
       73.73528       64.26496406        0.56814860
       73.83497       63.05865260        0.59652672
       73.93467       64.33043944        0.63458656
       74.03436       65.49696451        0.56679045
       74.13405       65.48845299        0.59084858
       74.23375       64.24244254        0.60943934
       74.33344       63.74921616        0.66827163
       74.43313       64.62079444        0.69826914
       74.53283       67.44988729        0.60642069
       74.63252       70.65053248        0.61648367
       74.73221       73.61753323        0.62653542
       74.83191       76.51311179        0.67790146
       74.93160       81.44746008        0.70788907
       75.03129       81.48490887        0.62946577
       75.13099       84.65445798        0.66489600
       75.23068       89.00795949        0.71163815
       75.33037       93.73025885        0.80332253
       75.43007       98.10909808        0.83430325
       75.52976      106.05604113        0.75439992
       75.62945      113.92470335        0.78217223
       75.72915      121.09152612        0.80410983
       75.82884      128.93248173        0.89447211
       75.92854      131.87205336        0.84957926
       76.02823      140.63122574        0.82400017
       76.12792      148.67808023        0.88671309
       76.22762      152.37967956        0.94768014
       76.32731      152.74887438        1.07165415
       76.42700      152.15577170        1.00938452
       76.52670      149.99487419        0.92424635
       76.62639      143.35032126        0.89115927
       76.72608      136.96164894        0.85574562
       76.82578      130.25449708        0.96055251
       76.92547      127.41633520        0.76060358
       77.02516      125.96083381        0.78362627
       77.12486      124.21220643        0.81720341
       77.22455      127.20777875        0.88099610
       77.32424      131.38214837        1.10069193
       77.42394      132.26298522        0.88192364
       77.52363      131.10661349        0.84831201
       77.62332      133.57160454        0.85266191
       77.72302      135.42259849        0.86073202
       77.82271      139.65608515        1.02578968
       77.92240      139.92050420        0.78625896
       78.02210      140.70965452        0.85090628
       78.12179      140.58411391        0.90839918
       78.22148      135.08753207        0.94078687
       78.32118      133.60000922        1.08538036
       78.42087      127.21888700        0.83270117
       78.52056      123.63155231        0.84722740
       78.62026      118.77945999        0.82328747
       78.71995      111.00658077        0.79755466
       78.81964      106.35464999        0.87134512
       78.91934       98.19861686        0.64789978
       79.01903       89.57289562        0.67744650
       79.11872       79.93002977        0.66492088
       79.21842       74.37998854        0.68361208
       79.31811       71.89137792        0.75672602
       79.41780       69.11606729        0.60160845
       79.51750       68.71791886        0.60949498
       79.61719       66.11796571        0.59934384
       79.71689       64.47555537        0.61430906
       79.81658       65.76525660        0.65782290
       79.91627       65.31393418        0.55564430
       80.01597       61.82371771        0.55531707
       80.11566       62.78016761        0.58507788
       80.21535       64.04149318        0.63180975
       80.31505       62.98261288        0.74469845
       80.41474       66.64644539        0.58901958
       80.51443       68.13995482        0.59312654
       80.61413       72.25633858        0.63147946
       80.71382       80.87266669        0.69211080
       80.81351       83.84025935        0.79223615
       80.91321       92.55205072        0.61470030
       81.01290      109.29747669        0.72309210
       81.11259      130.89373694        0.85706579
       81.21229      146.77464001        0.98406898
       81.31198      158.23683013        1.14172656
       81.41167      178.83417753        0.95332448
       81.51137      200.79947083        1.04263917
       81.61106      216.46406535        1.13295406
       81.71075      228.66608869        1.20729323
       81.81045      234.97214678        1.29762375
       81.91014      257.62955575        1.04833250
       82.00983      268.88450111        1.14651349
       82.10953      279.66432333        1.31008477
       82.20922      282.40779100        1.46459794
       82.30891      287.84439035        1.55168377
       82.40861      285.12701266        1.25527364
       82.50830      279.62424678        1.23879181
       82.60799      277.82163560        1.32974961
       82.70769      276.77925814        1.44416981
       82.80738      277.98363865        1.38312832
       82.90707      274.50018669        1.11552526
       83.00677      271.12810259        1.18079905
       83.10646      263.46063790        1.36813957
       83.20615      254.04319562        1.49339730
       83.30585      245.93766671        1.39046671
       83.40554      226.50100544        1.10621430
       83.50524      212.96688308        1.04468013
       83.60493      192.60906983        1.09116858
       83.70462      180.17124096        1.18788949
       83.80432      168.11955683        1.00103001
       83.90401      142.68731173        0.77054963
       84.00370      121.96930125        0.74065814
       84.10340      103.50095228        0.81290795
       84.20309       97.07372127        0.95481307
       84.30278       86.92082363        0.73357648
       84.40248       79.02850361        0.61653737
       84.50217       72.40175966        0.57829028
       84.60186       67.47887625        0.63074960
       84.70156       67.85775814        0.82776033
       84.80125       66.31809646        0.56957452
       84.90094       65.91443458        0.51006393
       85.00064       64.32589250        0.51900448
       85.10033       64.66329670        0.61587364
       85.20002       63.21316782        1.04411255
       85.29972       65.60785985        0.56134368
       85.39941       66.33028333        0.57552998
       85.49910       66.60821127        0.56088619
       85.59880       67.28172813        0.63395079
       85.69849       67.91414193        1.14362281
       85.79818       64.73913133        0.52613459
       85.89788       63.39628683        0.50809145
       85.99757       62.15203803        0.51680546
       86.09726       61.73630156        0.59133861
       86.19696       64.19999076        1.15868961
       86.29665       62.42709549        0.54053475
       86.39634       61.51982434        0.54581938
       86.49604       59.26500884        0.52741563
       86.59573       58.16468908        0.55660705
       86.69542       56.65957024        1.14829723
       86.79512       54.39628243        0.46686810
       86.89481       54.57663388        0.46106598
       86.99451       52.38019262        0.46802071
       87.09420       51.93005015        0.51968203
       87.19389       50.13924279        1.20922423
       87.29359       51.67460723        0.49764555
       87.39328       49.86875527        0.49532231
       87.49297       48.68780108        0.47501993
       87.59267       48.99478590        0.48591134
       87.69236       48.27422264        1.44307698
       87.79205       49.34959289        0.45460045
       87.89175       49.34295385        0.45090968
       87.99144       50.25699903        0.47426135
       88.09113       49.56648062        0.50054784
       88.19083       45.77384530        2.54373361
       88.29052       49.09830772        0.50127676
       88.39021       49.04681717        0.50434887
       88.48991       48.12559816        0.47938827
       88.58960       48.75844229        0.46733991
       88.68929       50.06856776        3.66947832
       88.78899       48.98108143        0.45213888
       88.88868       49.24581622        0.44347797
       88.98837       50.18261989        0.46570049
       89.08807       49.72362323        0.47478069
       89.18776       54.13712604        4.03397012
       89.28745       49.44435542        0.48100235
       89.38715       51.80311718        0.49760275
       89.48684       53.77142016        0.49628992
       89.58653       55.10393157        0.49230782
       89.68623       57.26604336        4.07011103
       89.78592       58.55554876        0.49341338
       89.88561       60.50896920        0.49189455
       89.98531       62.41238856        0.51242343
       90.08500       68.20080209        0.55610332
       90.18469       69.41308520        4.67997580
       90.28439       73.45409843        0.58994387
       90.38408       77.96725929        0.61846639
       90.48377       83.49317105        0.62857163
       90.58347       88.96993085        0.63924457
       90.68316       90.63667309        5.02724403
       90.78286       90.60872032        0.61768088
       90.88255       92.50137124        0.60746332
       90.98224       95.35673428        0.63843680
       91.08194       97.71758611        0.66776459
       91.18163       98.83234805        5.35989202
       91.28132       99.00029360        0.69217776
       91.38102       99.14462297        0.71108250
       91.48071       97.54754530        0.68783723
       91.58040       94.00282056        0.65263278
       91.68010       94.12134516        4.94059688
       91.77979       88.37739055        0.60688579
       91.87948       86.05782141        0.58938815
       91.97918       83.26650091        0.60173034
       92.07887       81.25020710        0.61896338
       92.17856       80.67624393        4.68910627
       92.27826       79.25303330        0.63114148
       92.37795       77.22195236        0.63755795
       92.47764       77.14842509        0.60493822
       92.57734       78.24210732        0.59110855
       92.67703       79.70136286        3.87362494
       92.77672       81.62758040        0.58224224
       92.87642       83.31165887        0.57715169
       92.97611       86.11861002        0.61302468
       93.07580       88.18025905        0.70823107
       93.17550       87.60544211        1.32727517
       93.27519       89.76433120        0.65880843
       93.37488       91.75784709        0.64770161
       93.47458       96.16861476        0.67088278
       93.57427       97.18771564        0.77985871
       93.67396       97.35153078        1.05483001
       93.77366       97.77375392        0.65491132
       93.87335       96.43991708        0.62114509
       93.97304       93.58766321        0.63735820
       94.07274       89.72300509        0.80967949
       94.17243       90.28881804        0.92685875
       94.27212       89.19043228        0.68599827
       94.37182       91.23334496        0.67642332
       94.47151       89.56096717        0.64164660
       94.57121       88.46307085        0.84145764
       94.67090       88.27693215        0.85027971
       94.77059       85.45012274        0.64999928
       94.87029       81.71108088        0.57762303
       94.96998       75.01379512        0.55981340
       95.06967       70.98826308        0.62735647
       95.16937       69.09274869        0.84697105
       95.26906       68.27698871        0.65034196
       95.36875       65.61504564        0.57823595
       95.46845       63.09711844        0.54470696
       95.56814       60.98989174        0.61601130
       95.66783       58.90576157        0.67988822
       95.76753       57.52288858        0.55506901
       95.86722       54.54824544        0.45954474
       95.96691       53.89474599        0.47374630
       96.06661       53.43329172        0.60422682
       96.16630       52.53925037        0.63883386
       96.26599       50.45290806        0.56200423
       96.36569       50.57250321        0.50488258
       96.46538       48.83584148        0.47867259
       96.56507       46.63004316        0.57708877
       96.66477       47.97391320        0.57051063
       96.76446       46.18361718        0.50005991
       96.86415       47.15121195        0.43773659
       96.96385       46.80898019        0.45044293
       97.06354       47.53090093        0.61384708
       97.16323       47.44078090        0.58636904
       97.26293       47.75018895        0.55271680
       97.36262       48.08932170        0.51367800
       97.46231       47.22125727        0.46821938
       97.56201       48.60949250        0.60452733
       97.66170       50.35224548        0.55279373
       97.76139       51.12461884        0.50611153
       97.86109       53.23237377        0.46716044
       97.96078       54.11995971        0.48140262
       98.06047       56.36717362        0.68266625
       98.16017       56.00707450        0.60488565
       98.25986       56.82252539        0.58204656
       98.35956       58.46962550        0.55757060
       98.45925       61.09128076        0.53221541
       98.55894       65.12477753        0.71730436
       98.65864       65.46060747        0.61707661
       98.75833       68.35557173        0.58948075
       98.85802       69.84167160        0.55650125
       98.95772       71.48581555        0.55941387
       99.05741       72.64754027        0.78304508
       99.15710       72.99616029        0.67507073
       99.25680       75.46772468        0.66527728
       99.35649       78.18139549        0.64521772
       99.45618       81.56991664        0.61453407
       99.55588       82.74740863        0.82720272
       99.65557       84.73317745        0.69080759
       99.75526       87.31213961        0.65754174
       99.85496       85.47461994        0.61901779
       99.95465       85.18592648        0.60581680
      100.05434       85.42716170        0.86429091
      100.15404       86.85048847        0.73420536
      100.25373       85.93255763        0.72145524
      100.35342       85.11319509        0.71510064
      100.45312       85.22891928        0.65298676
      100.55281       85.47231587        0.85889841
      100.65250       84.21193146        0.69438230
      100.75220       81.74592210        0.63343847
      100.85189       81.34497768        0.60372427
      100.95158       79.23765357        0.57972288
      101.05128       80.22876896        0.83180589
      101.15097       78.92057441        0.68168787
      101.25066       77.30715787        0.66641043
      101.35036       77.58470410        0.67342521
      101.45005       76.86155218        0.63022807
      101.54974       75.36275610        0.77707863
      101.64944       73.78449787        0.62715505
      101.74913       74.44007488        0.59360190
      101.84882       76.12427715        0.58449353
      101.94852       75.92806392        0.61487085
      102.04821       76.14961248        0.74170088
      102.14791       78.58976643        0.67935332
      102.24760       78.48123095        0.67313837
      102.34729       76.94061224        0.66360267
      102.44699       78.17191245        0.68066524
      102.54668       79.46896105        0.72029735
      102.64637       80.35644464        0.64699472
      102.74607       82.12787457        0.62312143
      102.84576       83.83730352        0.61779957
      102.94545       84.69080347        0.70731917
      103.04515       82.35686362        0.73810090
      103.14484       83.76063053        0.69563173
      103.24453       83.11229388        0.68216779
      103.34423       81.71936640        0.67079110
      103.44392       85.44723265        0.74348492
      103.54361       85.02943326        0.72043679
      103.64331       85.72848940        0.65855851
      103.74300       84.91969248        0.62511916
      103.84269       86.23124505        0.61916295
      103.94239       84.18608914        0.73492589
      104.04208       82.64584866        0.70427424
      104.14177       84.12116187        0.69145976
      104.24147       82.35042335        0.68358762
      104.34116       82.69515804        0.68931063
      104.44085       81.91154013        0.77906650
      104.54055       80.97502568        0.70120278
      104.64024       79.51208908        0.65298128
      104.73993       77.79002942        0.61614929
      104.83963       75.11642446        0.58306187
      104.93932       71.53297210        0.68935110
      105.03901       71.82049003        0.65087589
      105.13871       71.45100924        0.62506055
      105.23840       70.24839229        0.61929356
      105.33809       70.56458268        0.62438376
      105.43779       70.32767380        0.72524564
      105.53748       68.63499885        0.64233101
      105.63717       67.20545544        0.58246418
      105.73687       65.25771169        0.54604650
      105.83656       63.44480498        0.52447285
      105.93626       62.08518000        0.65732301
      106.03595       61.56572370        0.59319882
      106.13564       59.11593985        0.56157566
      106.23534       58.85079176        0.56718863
      106.33503       56.83923679        0.56284591
      106.43472       56.09413840        0.66095126
      106.53442       55.07436559        0.56954815
      106.63411       54.49537481        0.51459975
      106.73380       54.57600870        0.49083165
      106.83350       55.58924341        0.48805706
      106.93319       55.59191967        0.63269253
      107.03288       56.33167738        0.56453706
      107.13258       56.78973651        0.55022853
      107.23227       57.10410350        0.55978744
      107.33196       55.91962732        0.55231749
      107.43166       57.34847591        0.67222479
      107.53135       58.80937232        0.58748432
      107.63104       59.04764704        0.53604535
      107.73074       59.98395365        0.51843320
      107.83043       61.70281862        0.51931663
      107.93012       62.29026477        0.69031986
      108.02982       62.30062632        0.60426020
      108.12951       61.98099975        0.57311907
      108.22920       62.36043453        0.56568999
      108.32890       64.46693700        0.56988893
      108.42859       64.48269252        0.72336790
      108.52828       64.67818875        0.61454582
      108.62798       66.29536373        0.56432429
      108.72767       65.67403672        0.53905557
      108.82736       65.59581504        0.55059743
      108.92706       65.16076052        0.69495910
      109.02675       64.26922980        0.60370620
      109.12644       64.43952876        0.59002302
      109.22614       63.47081554        0.58593401
      109.32583       65.28193818        0.64773406
      109.42552       64.97598752        0.68159927
      109.52522       64.71310330        0.61366337
      109.62491       63.61000907        0.57859087
      109.72461       63.30298514        0.55179991
      109.82430       61.20433964        0.50665358
      109.92399       61.47874661        0.66025029
      110.02369       59.60442624        0.56911958
      110.12338       59.78655214        0.56629233
      110.22307       60.27752451        0.56440534
      110.32277       58.50483306        0.56763706
      110.42246       58.94422210        0.69282146
      110.52215       58.03535249        0.58216187
      110.62185       57.61876519        0.54665077
      110.72154       56.00400138        0.50266116
      110.82123       56.84835527        0.52310476
      110.92093       56.47201123        0.60804832
      111.02062       55.52519753        0.55692749
      111.12031       57.06475763        0.56896317
      111.22001       56.47156740        0.55533814
      111.31970       57.17254666        0.60649810
      111.41939       58.85670859        0.63694720
      111.51909       57.56373261        0.57144032
      111.61878       59.48259090        0.54738716
      111.71847       61.40348842        0.51761104
      111.81817       63.56773429        0.57181813
      111.91786       64.88202334        0.60809485
      112.01755       68.47474402        0.61036656
      112.11725       69.67548710        0.62048664
      112.21694       71.45095280        0.62571227
      112.31663       72.82508866        0.69626742
      112.41633       73.03331192        0.68500705
      112.51602       76.06959162        0.64412252
      112.61571       79.47333168        0.62840752
      112.71541       83.54060574        0.60759292
      112.81510       85.07330696        0.68767928
      112.91479       86.43434974        0.70625240
      113.01449       88.24261006        0.69901215
      113.11418       88.54350493        0.69789860
      113.21387       89.02900546        0.69668382
      113.31357       91.03785570        0.78267097
      113.41326       91.72857689        0.74671391
      113.51296       91.59760355        0.70187934
      113.61265       92.73856442        0.68158121
      113.71234       93.28656548        0.65300958
      113.81204       92.81803497        0.74617109
      113.91173       91.58294742        0.71807533
      114.01142       89.40109770        0.70206158
      114.11112       88.46517704        0.69789474
      114.21081       90.01041564        0.70924310
      114.31050       91.65128498        0.81183598
      114.41020       90.38208488        0.74480702
      114.50989       89.00327991        0.69175902
      114.60958       88.30284551        0.66670659
      114.70928       88.33302428        0.64313747
      114.80897       86.34676886        0.72094318
      114.90866       86.37180294        0.68009674
      115.00836       87.75695334        0.68248633
      115.10805       87.47168892        0.68505396
      115.20774       88.72363793        0.70053027
      115.30744       88.78312265        0.80461468
      115.40713       92.01793966        0.74235646
      115.50682       90.87621349        0.69634416
      115.60652       90.56970430        0.66994887
      115.70621       90.43050053        0.64335875
      115.80590       92.73991905        0.76035392
      115.90560       94.31251628        0.69516493
      116.00529       95.01382020        0.70561458
      116.10498       98.25490611        0.72544776
      116.20468      100.11348469        0.74932732
      116.30437      100.85248315        0.89664796
      116.40406      101.09598441        0.78191732
      116.50376      103.73996591        0.74884548
      116.60345      104.12851162        0.72022725
      116.70314      108.60873730        0.71378854
      116.80284      112.22991921        0.86267235
      116.90253      114.74858896        0.78501268
      117.00222      119.63712010        0.79588004
      117.10192      120.83740233        0.82146013
      117.20161      124.28734001        0.84373903
      117.30131      126.05459942        1.01709316
      117.40100      129.46180280        0.86705001
      117.50069      134.72605301        0.84081257
      117.60039      139.42367432        0.81921756
      117.70008      144.01254078        0.80721757
      117.79977      147.83156714        1.00283439
      117.89947      150.29797729        0.87940028
      117.99916      153.94834892        0.90118059
      118.09885      156.09706018        0.92479495
      118.19855      158.88778259        0.97769577
      118.29824      164.61462591        1.09200144
      118.39793      167.59420963        1.00088296
      118.49763      170.73245168        0.95376761
      118.59732      175.87478558        0.93540856
      118.69701      176.97218384        0.97766781
      118.79671      177.89607757        1.05856939
      118.89640      175.81832122        0.98084206
      118.99609      177.06236723        0.98345643
      119.09579      177.96310160        0.99759637
      119.19548      178.96006035        1.09326534
      119.29517      179.22763873        1.13671938
      119.39487      179.48716162        1.04574796
      119.49456      177.40713732        0.97941172
      119.59425      173.59309889        0.94028645
      119.69395      169.39064701        0.97924534
      119.79364      166.83740407        0.98174417
      119.89333      160.56026843        0.93112800
      119.99303      157.74481975        0.90068202
      120.09272      153.88798625        0.90929024
      120.19241      151.23068469        1.01274581
      120.29211      145.44116177        0.98208908
      120.39180      141.84087878        0.92472583
      120.49149      137.75689911        0.84698669
      120.59119      132.78698993        0.80645129
      120.69088      128.84445720        0.85459439
      120.79057      126.16822025        0.82714343
      120.89027      125.21772252        0.80886723
      120.98996      123.66663957        0.79745464
      121.08966      121.26618036        0.79526513
      121.18935      119.31458552        0.90391566
      121.28904      119.19285454        0.88053352
      121.38874      118.50418651        0.83016498
      121.48843      115.74110011        0.77453946
      121.58812      113.76307751        0.73212974
      121.68782      115.13956418        0.81615847
      121.78751      115.73602433        0.77981114
      121.88720      113.75503940        0.76296718
      121.98690      112.78632110        0.76527780
      122.08659      111.85906043        0.77726522
      122.18628      110.46225452        0.89581333
      122.28598      108.31992021        0.83390033
      122.38567      107.84170865        0.79682512
      122.48536      107.49670852        0.75249261
      122.58506      107.19433761        0.71165009
      122.68475      108.06766539        0.80982680
      122.78444      105.75676279        0.75404719
      122.88414      105.64502650        0.74723708
      122.98383      105.98655916        0.76382394
      123.08352      103.43812835        0.74780773
      123.18322      101.99160168        0.86584689
      123.28291      103.39732914        0.79251715
      123.38260      102.02964337        0.75981421
      123.48230      101.60169792        0.73072775
      123.58199      102.15073917        0.68489869
      123.68168       99.06606521        0.76924457
      123.78138       96.88586601        0.68608146
      123.88107       94.33522527        0.66104912
      123.98076       92.95281501        0.66816811
      124.08046       89.92285604        0.64992626
      124.18015       90.62277011        0.73857240
      124.27984       88.78631355        0.65476744
      124.37954       87.55084179        0.61341567
      124.47923       84.93564801        0.58957259
      124.57893       80.91918876        0.61267508
