        5.04651       62.19718222        1.21289463
        5.14621       60.61053757        1.15360678
        5.24590       59.73208960        1.12862192
        5.34559       60.13778552        1.03871449
        5.44529       59.77029716        1.12649728
        5.54498       59.61445504        0.94632293
        5.64467       56.80570026        0.91524096
        5.74437       56.71828015        0.82552823
        5.84406       58.15305497        0.84614367
        5.94375       58.09869344        0.84460653
        6.04345       57.49829769        0.81635696
        6.14314       55.89109423        0.73674030
        6.24283       56.53676128        0.76552957
        6.34253       57.24515974        0.73480781
        6.44222       55.66400342        0.76275657
        6.54191       55.29646385        0.72015915
        6.64161       55.37771981        0.68274516
        6.74130       55.01108244        0.68318641
        6.84099       55.55799091        0.68166785
        6.94069       55.46019158        0.69131138
        7.04038       55.30540493        0.63722210
        7.14007       55.27278528        0.63570978
        7.23977       54.94751198        0.62271951
        7.33946       56.06636567        0.63878024
        7.43915       55.35231659        0.62633986
        7.53885       55.09548723        0.61332827
        7.63854       55.20399415        0.58679338
        7.73823       55.91708788        0.61330102
        7.83793       54.42113301        0.58535376
        7.93762       54.50732423        0.61110075
        8.03732       54.65037432        0.54878352
        8.13701       56.63284921        0.55631822
        8.23670       55.20158281        0.55685520
        8.33640       55.27273506        0.55737388
        8.43609       55.88101069        0.58597075
        8.53578       55.62848104        0.54453903
        8.63548       56.14970362        0.54084505
        8.73517       54.72218928        0.52361968
        8.83486       55.64903979        0.52940649
        8.93456       55.43178604        0.52563851
        9.03425       56.40630574        0.51479897
        9.13394       55.52262381        0.51163368
        9.23364       55.26896464        0.51789414
        9.33333       55.23102973        0.52825367
        9.43302       54.92100231        0.52693661
        9.53272       55.86461609        0.51357301
        9.63241       54.62081193        0.52206464
        9.73210       55.93963918        0.52739140
        9.83180       55.94741081        0.54957699
        9.93149       56.07914792        0.54629761
       10.03118       55.22144892        0.52152986
       10.13088       55.49710531        0.51032629
       10.23057       56.38209133        0.53874247
       10.33026       54.97740829        0.54976669
       10.42996       56.41316382        0.54940566
       10.52965       55.89892890        0.52959570
       10.62934       54.89264264        0.52597621
       10.72904       55.71125809        0.53779667
       10.82873       55.78400174        0.53544261
       10.92842       55.94674339        0.54522658
       11.02812       55.31388120        0.51644033
       11.12781       56.21485377        0.53938860
       11.22750       56.07535758        0.54407293
       11.32720       55.58029994        0.55618766
       11.42689       56.57697499        0.54177695
       11.52658       56.07016100        0.53287023
       11.62628       56.72423597        0.54184622
       11.72597       56.39692983        0.55172480
       11.82567       57.31544079        0.57175737
       11.92536       58.18819029        0.53920141
       12.02505       59.15162817        0.54626932
       12.12475       61.24418429        0.55554352
       12.22444       63.60844781        0.60058611
       12.32413       67.58625875        0.62892085
       12.42383       71.04630054        0.61235147
       12.52352       78.72138550        0.64134720
       12.62321       87.80679531        0.69749652
       12.72291       98.33973030        0.71934284
       12.82260      112.85014828        0.83939305
       12.92229      119.80493510        0.78608822
       13.02199      142.24654216        0.85253584
       13.12168      174.20313403        0.96437818
       13.22137      210.40152245        1.10001850
       13.32107      245.56381314        1.23285096
       13.42076      281.99820022        1.27836275
       13.52045      316.74514557        1.37802348
       13.62015      335.67675642        1.37875844
       13.71984      328.63065677        1.42063323
       13.81953      308.68681698        1.39674744
       13.91923      276.90334114        1.23759156
       14.01892      221.18571491        1.06877671
       14.11861      170.12383734        0.97105176
       14.21831      137.67957148        0.87052873
       14.31800      110.70994504        0.81862174
       14.41769       88.76985981        0.70365465
       14.51739       74.00731382        0.62542041
       14.61708       64.05888571        0.58243270
       14.71677       58.44921535        0.56492837
       14.81647       55.53607106        0.57660059
       14.91616       54.51606023        0.52527567
       15.01585       52.91672338        0.52669988
       15.11555       52.65840483        0.53147916
       15.21524       50.39455174        0.53565609
       15.31493       50.91984597        0.55147541
       15.41463       49.87153024        0.52833211
       15.51432       50.31556180        0.51427566
       15.61402       50.45000319        0.52801462
       15.71371       49.77525927        0.52080813
       15.81340       49.89375665        0.54244868
       15.91310       49.75764833        0.52634187
       16.01279       50.41517360        0.50734406
       16.11248       49.61622578        0.51675193
       16.21218       49.85716120        0.53238244
       16.31187       49.86651262        0.53373511
       16.41156       50.80192486        0.52877259
       16.51126       50.36357459        0.53534762
       16.61095       51.64738866        0.52285186
       16.71064       51.83541402        0.54038095
       16.81034       53.85369986        0.55266131
       16.91003       54.63389556        0.54066997
       17.00972       57.34843149        0.53202881
       17.10942       59.85873574        0.57474538
       17.20911       62.20359924        0.59130154
       17.30880       67.30478816        0.62094633
       17.40850       71.39279297        0.63981309
       17.50819       73.66294325        0.63129717
       17.60788       77.00527725        0.66587867
       17.70758       77.18746749        0.66943322
       17.80727       75.94618879        0.67208337
       17.90696       73.21480580        0.61669195
       18.00666       69.57847514        0.61135897
       18.10635       64.54606970        0.57225478
       18.20604       61.64642192        0.61321374
       18.30574       59.49104386        0.57391562
       18.40543       57.21930267        0.54871107
       18.50512       56.07552174        0.56023247
       18.60482       54.88628097        0.54545471
       18.70451       53.58883093        0.56943303
       18.80420       52.41558477        0.52894609
       18.90390       54.06460563        0.53161966
       19.00359       52.16254997        0.50836657
       19.10328       50.64187415        0.52980812
       19.20298       50.00565460        0.54279138
       19.30267       49.11807681        0.51652709
       19.40237       49.36488542        0.51198457
       19.50206       47.90976974        0.51693258
       19.60175       46.65697260        0.50429904
       19.70145       47.71509751        0.53486558
       19.80114       47.74251427        0.50743605
       19.90083       47.75980483        0.49037784
       20.00053       47.73458916        0.49894497
       20.10022       48.58326873        0.50717423
       20.19991       48.93773716        0.54423372
       20.29961       50.29390297        0.52288387
       20.39930       50.30809497        0.53875700
       20.49899       52.54534920        0.54125100
       20.59869       53.21443778        0.55470946
       20.69838       55.21751389        0.58609381
       20.79807       54.55391730        0.55558293
       20.89777       56.79990459        0.55429510
       20.99746       58.10564935        0.56633264
       21.09715       60.41284198        0.60849998
       21.19685       59.85613519        0.60247477
       21.29654       59.95530081        0.58820746
       21.39623       59.70982819        0.58700788
       21.49593       57.60840851        0.56813777
       21.59562       55.24938959        0.56954852
       21.69531       53.14942008        0.58082656
       21.79501       50.60373255        0.51823041
       21.89470       48.47499100        0.49561651
       21.99439       46.85292367        0.50776893
       22.09409       47.35722402        0.51180419
       22.19378       46.36082442        0.53768970
       22.29347       46.96045730        0.50405499
       22.39317       47.06026193        0.51767111
       22.49286       46.95440705        0.51666574
       22.59255       46.49458985        0.52013331
       22.69225       45.97561411        0.54500026
       22.79194       45.11490209        0.48478506
       22.89163       47.53659791        0.48810236
       22.99133       47.86879039        0.50341674
       23.09102       46.71505471        0.51637709
       23.19072       47.05472245        0.51950412
       23.29041       46.94621985        0.51243431
       23.39010       47.01933354        0.51821229
       23.48980       45.70196781        0.51263848
       23.58949       47.16364368        0.52788965
       23.68918       46.24483849        0.54958811
       23.78888       46.97020367        0.49368133
       23.88857       46.27174200        0.49634865
       23.98826       45.90311117        0.50537797
       24.08796       46.03204124        0.49623780
       24.18765       46.14200496        0.53236734
       24.28734       45.56372025        0.50362892
       24.38704       45.60451496        0.51227912
       24.48673       45.84904942        0.51183562
       24.58642       46.39235913        0.53194535
       24.68612       47.48356825        0.53755605
       24.78581       47.11974641        0.49360219
       24.88550       46.32682177        0.48916438
       24.98520       47.70573492        0.51487609
       25.08489       47.50593238        0.52403757
       25.18458       47.66647106        0.53596388
       25.28428       49.20823876        0.52500173
       25.38397       48.59986276        0.51915690
       25.48366       51.24365716        0.53652645
       25.58336       53.82386757        0.57338246
       25.68305       60.13246945        0.59504287
       25.78274       68.64800535        0.60090332
       25.88244       81.94798196        0.67455749
       25.98213      106.17673947        0.77711420
       26.08182      135.66052531        0.90564649
       26.18152      162.10185005        1.01801179
       26.28121      188.88777995        1.04365977
       26.38090      199.99396402        1.08464354
       26.48060      198.29039661        1.10945263
       26.58029      180.72992511        1.10196291
       26.67998      159.33367475        0.97411473
       26.77968      126.60135617        0.85370839
       26.87937       97.60352158        0.73559033
       26.97907       79.68872840        0.65734105
       27.07876       73.77422608        0.68045916
       27.17845       73.30706049        0.64819858
       27.27815       77.21161665        0.65008200
       27.37784       83.03318078        0.70109509
       27.47753       87.22600001        0.70846481
       27.57723       87.92267361        0.74520017
       27.67692       85.95694056        0.71896611
       27.77661       79.19646224        0.65795356
       27.87631       71.27264109        0.61301231
       27.97600       64.43920212        0.59536821
       28.07569       58.18989230        0.59817670
       28.17539       55.13992903        0.55716437
       28.27508       53.14704235        0.54706246
       28.37477       50.80828536        0.54739981
       28.47447       52.20695004        0.55068331
       28.57416       52.11659354        0.59483025
       28.67385       54.03000816        0.53901454
       28.77355       57.11662580        0.54448499
       28.87324       58.97348581        0.56817989
       28.97293       59.49092264        0.57204830
       29.07263       60.93682838        0.63125128
       29.17232       60.75827116        0.57520970
       29.27201       57.99608011        0.57209388
       29.37171       55.39168827        0.57489630
       29.47140       54.62086189        0.56422184
       29.57109       52.35462432        0.58553049
       29.67079       50.57887258        0.52378284
       29.77048       49.83135796        0.52103657
       29.87017       48.26067356        0.50255780
       29.96987       48.71983528        0.52948914
       30.06956       49.44940035        0.55040940
       30.16925       49.23636014        0.51710754
       30.26895       50.88952649        0.52787709
       30.36864       50.68939829        0.53542885
       30.46833       52.91310719        0.55280318
       30.56803       55.15054800        0.59639138
       30.66772       59.06003898        0.57470509
       30.76742       61.25851905        0.57379914
       30.86711       65.26191990        0.60446593
       30.96680       65.11994947        0.60727923
       31.06650       64.12433484        0.63176924
       31.16619       63.94573209        0.59317082
       31.26588       61.94106540        0.58009437
       31.36558       60.82080874        0.58224210
       31.46527       59.99579336        0.60162166
       31.56496       63.76448846        0.63059941
       31.66466       66.67439738        0.60333229
       31.76435       75.11040035        0.64061249
       31.86404       83.45994086        0.66732382
       31.96374       88.86615270        0.70518803
       32.06343       89.08565811        0.73067467
       32.16312       86.48811938        0.67629593
       32.26282       80.15030868        0.66625418
       32.36251       74.06171851        0.66541292
       32.46220       66.13385715        0.63922752
       32.56190       61.80134141        0.62844771
       32.66159       57.82527210        0.57690015
       32.76128       54.73695476        0.54840123
       32.86098       52.94298896        0.54727033
       32.96067       53.11881397        0.55506388
       33.06036       53.63563532        0.56798642
       33.16006       53.47238939        0.53407604
       33.25975       55.15911273        0.56022028
       33.35944       55.24500812        0.56370316
       33.45914       57.06418360        0.59488834
       33.55883       60.57948074        0.61474611
       33.65852       62.76245707        0.58369497
       33.75822       67.40672275        0.60431874
       33.85791       75.94388294        0.64496216
       33.95760       83.71485474        0.69801670
       34.05730       92.04250048        0.72573795
       34.15699      102.26452517        0.75399093
       34.25668      116.92411410        0.80519736
       34.35638      138.08805203        0.90044825
       34.45607      179.79517290        1.08888651
       34.55577      223.35480677        1.16363494
       34.65546      299.04640253        1.30514577
       34.75515      385.98133476        1.52899736
       34.85485      450.51491949        1.65315133
       34.95454      465.78688924        1.73672881
       35.05423      438.23674490        1.73549587
       35.15393      379.13328370        1.50386931
       35.25362      292.52903714        1.32577129
       35.35331      214.19656557        1.15140283
       35.45301      155.10695203        1.01392004
       35.55270      116.90005691        0.85245020
       35.65239       91.79434071        0.72692892
       35.75209       81.60876571        0.67943402
       35.85178       77.39384580        0.66037208
       35.95147       72.52920240        0.65382300
       36.05117       69.04044733        0.62442301
       36.15086       62.79674142        0.57200968
       36.25055       58.69507107        0.57737021
       36.35025       54.44775617        0.56656823
       36.44994       54.75751207        0.57957111
       36.54963       54.44553491        0.55474918
       36.64933       52.85833264        0.53829960
       36.74902       52.37295421        0.54137642
       36.84871       52.59253673        0.53861708
       36.94841       52.57809189        0.58240074
       37.04810       52.37618165        0.51252578
       37.14779       52.15318998        0.52190071
       37.24749       50.73174279        0.52892731
       37.34718       51.45803268        0.54635780
       37.44687       49.85820018        0.57754041
       37.54657       50.85093836        0.53257174
       37.64626       50.19385843        0.52703067
       37.74595       50.35379619        0.51963064
       37.84565       50.09334436        0.54836754
       37.94534       50.91288941        0.56327910
       38.04503       49.52249421        0.50198508
       38.14473       51.07845562        0.51494541
       38.24442       50.64306427        0.52207763
       38.34412       52.08452748        0.55367703
       38.44381       50.91855811        0.59182753
       38.54350       52.75523989        0.53716390
       38.64320       52.39721959        0.53368227
       38.74289       54.42980299        0.55124361
       38.84258       55.27937991        0.55695446
       38.94228       59.19942835        0.60494058
       39.04197       62.40530418        0.56036251
       39.14166       66.90749492        0.60404145
       39.24136       71.62442276        0.62378324
       39.34105       71.31362462        0.64409059
       39.44074       73.01146844        0.71107067
       39.54044       71.69279817        0.62988101
       39.64013       70.54428570        0.62278718
       39.73982       66.34517050        0.60598093
       39.83952       62.37731079        0.58321702
       39.93921       60.13593534        0.60695443
       40.03890       58.09335959        0.54587657
       40.13860       56.63173386        0.53813406
       40.23829       55.53728942        0.55165748
       40.33798       56.01728539        0.57135472
       40.43768       57.00696136        0.60315377
       40.53737       57.27247255        0.56113232
       40.63706       58.55734197        0.57943378
       40.73676       60.34235939        0.58744643
       40.83645       62.02623128        0.60073326
       40.93614       64.80299134        0.62461857
       41.03584       68.96089513        0.60680066
       41.13553       77.24893493        0.64382134
       41.23522       91.31752419        0.71859962
       41.33492      111.04760148        0.83207692
       41.43461      131.43678726        0.93712240
       41.53430      153.41785335        0.95122616
       41.63400      180.66526712        1.05907162
       41.73369      193.91473804        1.07523803
       41.83338      199.70727538        1.12123560
       41.93308      199.15697142        1.10958038
       42.03277      197.81794195        1.01042777
       42.13247      212.01196680        1.10152920
       42.23216      262.56682889        1.23699145
       42.33185      339.43680485        1.52608176
       42.43155      433.87644536        1.72211603
       42.53124      536.25838496        1.87928495
       42.63093      616.37967790        2.03977772
       42.73063      649.62534220        2.11246964
       42.83032      609.45756555        2.07105661
       42.93001      540.34286722        1.85978285
       43.02971      408.34251845        1.49996897
       43.12940      282.17578357        1.24996731
       43.22909      190.39227534        1.06528264
       43.32879      137.54167461        0.94687849
       43.42848      102.16815836        0.79422416
       43.52817       81.32729948        0.67605674
       43.62787       71.99456888        0.63322372
       43.72756       67.05783018        0.62519463
       43.82725       64.86869095        0.64190231
       43.92695       60.60081127        0.56222827
       44.02664       59.82469691        0.55588709
       44.12633       58.61545197        0.57063767
       44.22603       58.31662385        0.59241059
       44.32572       57.79381479        0.62151683
       44.42541       56.33446875        0.58570651
       44.52511       57.30115848        0.57491833
       44.62480       58.90185801        0.59129700
       44.72449       60.69520991        0.58185049
       44.82419       63.44534244        0.66783329
       44.92388       65.93126127        0.56800655
       45.02357       73.36687434        0.60480750
       45.12327       80.32068556        0.65248219
       45.22296       93.62945359        0.72447299
       45.32265      110.63511509        0.87336090
       45.42235      130.15153258        0.86498225
       45.52204      164.35897466        0.96727867
       45.62174      209.24889658        1.11893403
       45.72143      258.75849739        1.25379994
       45.82112      294.14016915        1.47140399
       45.92082      312.35894212        1.29094951
       46.02051      300.83831369        1.29164510
       46.12020      262.94535164        1.20431475
       46.21990      214.03968914        1.13300898
       46.31959      168.17219011        1.07665299
       46.41928      128.26162467        0.86298479
       46.51898       97.33696116        0.75235291
       46.61867       76.49626013        0.66151750
       46.71836       66.77065706        0.63305993
       46.81806       61.12374820        0.62757581
       46.91775       58.22852737        0.53372394
       47.01744       58.13913228        0.54605169
       47.11714       59.38102527        0.56457752
       47.21683       61.53949500        0.59186512
       47.31652       68.69053171        0.68296592
       47.41622       76.90658303        0.68188346
       47.51591       90.04544193        0.74068918
       47.61560      107.44616513        0.80447363
       47.71530      132.92837844        0.90807959
       47.81499      157.55898308        1.01742053
       47.91468      188.38406494        0.97796214
       48.01438      214.13140841        1.04735713
       48.11407      222.08438026        1.10788403
       48.21376      210.40917143        1.12374133
       48.31346      188.90060645        1.09888283
       48.41315      159.27586713        0.93609660
       48.51284      127.14837356        0.85979247
       48.61254       97.99557920        0.74827370
       48.71223       78.53424369        0.67995531
       48.81192       66.79135079        0.62446092
       48.91162       59.97916271        0.52995543
       49.01131       55.26654036        0.52617870
       49.11100       53.74316589        0.53746020
       49.21070       52.45667740        0.55736298
       49.31039       51.69975301        0.56940468
       49.41009       51.35668089        0.53609179
       49.50978       50.56393628        0.54287065
       49.60947       49.95312938        0.54347394
       49.70917       49.28438462        0.55977536
       49.80886       49.90842914        0.54829788
       49.90855       49.66472470        0.49822211
       50.00825       49.39875251        0.50735784
       50.10794       50.75229989        0.52608935
       50.20763       51.55647360        0.55405649
       50.30733       52.38066868        0.58507187
       50.40702       52.94575058        0.55166640
       50.50671       54.39229913        0.56093468
       50.60641       55.25450901        0.56624865
       50.70610       55.82354904        0.58569932
       50.80579       56.31614129        0.58056431
       50.90549       57.04522331        0.52687183
       51.00518       55.17555590        0.52259019
       51.10487       56.30713190        0.54581553
       51.20457       55.95674061        0.57922360
       51.30426       57.32142679        0.58333271
       51.40395       56.68034384        0.55602677
       51.50365       58.74317619        0.57272422
       51.60334       60.55993730        0.59318426
       51.70303       60.30296976        0.62856258
       51.80273       61.69962182        0.58334135
       51.90242       61.40304885        0.54368214
       52.00211       62.91918548        0.55310116
       52.10181       63.31979847        0.57246031
       52.20150       63.21896837        0.62992184
       52.30119       62.74147393        0.60445717
       52.40089       61.80126657        0.59042115
       52.50058       62.24920946        0.60379824
       52.60027       59.87855180        0.60003130
       52.69997       57.78498578        0.64574819
       52.79966       57.45832874        0.54133325
       52.89935       60.44331278        0.53599477
       52.99905       64.92096536        0.56498165
       53.09874       76.61186285        0.63474800
       53.19844       90.81948911        0.79322669
       53.29813      106.71608788        0.76607507
       53.39782      127.01774201        0.86740979
       53.49752      145.66248314        0.93588141
       53.59721      163.07735245        0.99223752
       53.69690      169.33732654        1.11049046
       53.79660      175.17966212        0.94702242
       53.89629      168.19083308        0.91686297
       53.99598      150.55980920        0.88611406
       54.09568      130.58112731        0.85897038
       54.19537      117.12646305        0.88533050
       54.29506      103.55105799        0.76309794
       54.39476       93.42426252        0.72926977
       54.49445       87.63424578        0.70617662
       54.59414       83.41272057        0.69898294
       54.69384       81.37404037        0.73627119
       54.79353       78.41624326        0.61949459
       54.89322       77.80878376        0.61481638
       54.99292       74.39124934        0.61841676
       55.09261       71.39905587        0.62974379
       55.19230       67.64896961        0.65786791
       55.29200       65.47426147        0.60217486
       55.39169       61.84392926        0.60350433
       55.49138       59.44555451        0.58925744
       55.59108       57.23099306        0.59649689
       55.69077       56.65475948        0.60901776
       55.79046       54.54505449        0.52225367
       55.89016       53.61095192        0.51644170
       55.98985       55.13684437        0.52723659
       56.08954       58.49651350        0.56128341
       56.18924       61.53427068        0.62158664
       56.28893       69.15949798        0.60387801
       56.38862       79.16093381        0.66938031
       56.48832       91.09732442        0.73183951
       56.58801      101.38903024        0.79570146
       56.68770      109.83343148        0.85591757
       56.78740      112.18603791        0.74059019
       56.88709      114.57561732        0.75621564
       56.98679      107.86142913        0.73358476
       57.08648      100.40253037        0.74939862
       57.18617       90.37454883        0.73500369
       57.28587       77.84052725        0.63603148
       57.38556       70.35281833        0.64290206
       57.48525       61.82704409        0.61340076
       57.58495       58.78434467        0.61152439
       57.68464       56.09119901        0.60229184
       57.78433       53.95371878        0.51656073
       57.88403       53.39046760        0.51979722
       57.98372       53.16383011        0.52693158
       58.08341       51.80357229        0.56226656
       58.18311       53.61137046        0.58529530
       58.28280       53.04215409        0.54829456
       58.38249       52.19389089        0.56823291
       58.48219       53.26635192        0.58654595
       58.58188       51.81629390        0.58468664
       58.68157       53.29685888        0.58122044
       58.78127       52.06465618        0.50237620
       58.88096       52.40040691        0.49658609
       58.98065       54.40939709        0.52546664
       59.08035       56.55878395        0.57188004
       59.18004       58.71672922        0.59130144
       59.27973       60.27489996        0.56538773
       59.37943       63.57088470        0.60011625
       59.47912       67.27704707        0.64306760
       59.57881       70.85196073        0.69174399
       59.67851       75.86484323        0.66789485
       59.77820       82.60828392        0.64139656
       59.87789       90.14068014        0.66842931
       59.97759       98.36873089        0.73141578
       60.07728      101.43487038        0.80468724
       60.17697      105.81634499        0.78351185
       60.27667      107.01534860        0.76621211
       60.37636      105.69324544        0.77605996
       60.47605      103.27383198        0.79997512
       60.57575       98.97253275        0.85767887
       60.67544       93.32924791        0.71488903
       60.77514       86.42776080        0.65329141
       60.87483       77.21710461        0.60460535
       60.97452       70.98619683        0.61008425
       61.07422       67.51417349        0.66800180
       61.17391       67.62180037        0.57912194
       61.27360       66.45842646        0.59438630
       61.37330       66.80869854        0.61809006
       61.47299       68.63092242        0.65420043
       61.57268       69.88914375        0.75089371
       61.67238       69.30768773        0.60938268
       61.77207       71.00237001        0.60088182
       61.87176       70.89561617        0.59372921
       61.97146       69.14362410        0.60856953
       62.07115       68.81081471        0.68754565
       62.17084       65.55925276        0.58764043
       62.27054       63.26483504        0.60166791
       62.37023       60.67632040        0.61242954
       62.46992       59.95564981        0.62956837
       62.56962       59.17512536        0.70238661
       62.66931       58.52540294        0.56265842
       62.76900       59.32728237        0.55222478
       62.86870       61.85184091        0.55176809
       62.96839       68.70477205        0.60076234
       63.06808       75.82843012        0.70318867
       63.16778       88.43749336        0.67553061
       63.26747      105.44448456        0.76549471
       63.36716      123.13054624        0.86098578
       63.46686      143.06231132        0.95906592
       63.56655      157.61409731        1.07201008
       63.66624      180.36816476        0.97834638
       63.76594      200.29922382        1.00466993
       63.86563      206.49939129        1.01786823
       63.96532      203.22470668        1.05595827
       64.06502      191.83890800        1.09700235
       64.16471      171.62515328        0.95655517
       64.26440      144.79408246        0.91063595
       64.36410      120.60791045        0.84457094
       64.46379      101.28702025        0.81597966
       64.56349       89.68718896        0.78007019
       64.66318       77.41906415        0.63312361
       64.76287       67.76979819        0.58417157
       64.86257       62.11516095        0.55793579
       64.96226       58.69456560        0.56779932
       65.06195       55.53983951        0.59693355
       65.16165       53.99994148        0.53083063
       65.26134       53.91884106        0.54284441
       65.36103       54.59909115        0.57007634
       65.46073       54.44490419        0.58795891
       65.56042       54.89098074        0.61664534
       65.66011       56.06238045        0.54350617
       65.75981       58.34214769        0.54911692
       65.85950       58.58337191        0.54675982
       65.95919       62.08710815        0.58956196
       66.05889       65.33743802        0.62591434
       66.15858       72.80387795        0.62907309
       66.25827       82.82968635        0.69507916
       66.35797       94.15504218        0.77341981
       66.45766      109.16586250        0.88701059
       66.55735      122.37387675        0.94083889
       66.65705      139.14065501        0.89224849
       66.75674      151.18756064        0.90796864
       66.85643      162.75777719        0.93299077
       66.95613      168.72340402        0.98854785
       67.05582      169.62648067        0.99871293
       67.15551      163.20609379        0.93123046
       67.25521      151.91813673        0.94133025
       67.35490      136.35131657        0.93653291
       67.45459      120.10734616        0.92466284
       67.55429      106.35585782        0.83192804
       67.65398       91.93172859        0.69177149
       67.75367       80.06819060        0.63913827
       67.85337       77.35328367        0.63571496
       67.95306       75.76675092        0.67261329
       68.05275       79.74666622        0.65385298
       68.15245       88.17051398        0.68255723
       68.25214      100.38508468        0.77456448
       68.35184      107.74451489        0.83727078
       68.45153      116.35234781        0.95914397
       68.55122      121.01282669        0.84324101
       68.65092      128.39885042        0.81052324
       68.75061      130.38747275        0.82541048
       68.85030      128.54609940        0.83505023
       68.95000      123.10957730        0.92566529
       69.04969      114.64027209        0.75332425
       69.14938      100.51015450        0.72366155
       69.24908       86.87609196        0.71692335
       69.34877       77.49609734        0.69928579
       69.44846       71.75167298        0.77979016
       69.54816       63.25335028        0.57006613
       69.64785       57.48225613        0.53530286
       69.74754       56.17508456        0.53441350
       69.84724       52.69041525        0.53076495
       69.94693       52.03978536        0.59523241
       70.04662       49.66277209        0.47798120
       70.14632       48.84015693        0.49283173
       70.24601       47.59780870        0.52082381
       70.34570       47.64280793        0.55139639
       70.44540       48.25683908        0.65391830
       70.54509       49.42835232        0.51812532
       70.64478       49.18728028        0.51610356
       70.74448       50.92738324        0.53363855
       70.84417       50.02675587        0.54874382
       70.94386       51.40063875        0.61072806
       71.04356       52.31475561        0.50993085
       71.14325       53.47657189        0.53586834
       71.24294       54.67428640        0.57021742
       71.34264       55.07077322        0.60685664
       71.44233       56.28484701        0.68475459
       71.54202       55.96022905        0.55583466
       71.64172       55.66392543        0.53922541
       71.74141       54.26412086        0.52261399
       71.84110       54.01485196        0.53972040
       71.94080       53.28190202        0.58404857
       72.04049       54.37599107        0.49948390
       72.14019       53.23811176        0.51483882
       72.23988       53.63266655        0.54071108
       72.33957       52.82636655        0.59933652
       72.43927       55.48780482        0.67647719
       72.53896       53.58490959        0.53283107
       72.63865       54.54918655        0.52557143
       72.73835       56.22684144        0.52200871
       72.83804       59.95619852        0.56957714
       72.93773       62.04836785        0.61570456
       73.03743       64.96169558        0.54711621
       73.13712       67.35716418        0.58776033
       73.23681       68.86554027        0.62453374
       73.33651       69.52053605        0.69054570
       73.43620       68.37490634        0.74162379
       73.53589       69.69822794        0.60415971
       73.63559       67.95631524        0.58701781
       73.73528       68.04905558        0.58475861
       73.83497       65.94692960        0.61006821
       73.93467       64.61595005        0.63574148
       74.03436       62.80830620        0.55453013
       74.13405       60.67021758        0.56797095
       74.23375       58.17910949        0.57909996
       74.33344       56.08566913        0.62570760
       74.43313       56.01014978        0.64882686
       74.53283       56.45041797        0.55347326
       74.63252       57.15325409        0.55293880
       74.73221       57.44712642        0.55167319
       74.83191       61.40107391        0.60542503
       74.93160       64.74844307        0.62906847
       75.03129       69.80792797        0.58119209
       75.13099       78.81572941        0.64062981
       75.23068       90.74630758        0.71845077
       75.33037      102.34405212        0.84029094
       75.43007      114.21243301        0.90225139
       75.52976      130.65442720        0.84046522
       75.62945      146.73700736        0.89224390
       75.72915      159.70652999        0.92908890
       75.82884      165.55980663        1.01941103
       75.92854      167.73774126        0.96354378
       76.02823      171.23938617        0.91354312
       76.12792      169.26944392        0.94898463
       76.22762      161.94039169        0.97810212
       76.32731      152.67097811        1.07090407
       76.42700      144.40753966        0.98164380
       76.52670      128.95601612        0.85357515
       76.62639      111.80197898        0.78247913
       76.72608       98.46199734        0.72052741
       76.82578       92.88179192        0.80563436
       76.92547       92.17923648        0.64278604
       77.02516       97.57957787        0.68609342
       77.12486      105.60775620        0.75081445
       77.22455      118.58118287        0.84898588
       77.32424      128.95794506        1.08956858
       77.42394      141.27542851        0.91246628
       77.52363      149.30067080        0.90764765
       77.62332      159.49927194        0.93541554
       77.72302      168.49493256        0.96502590
       77.82271      173.58027598        1.14963577
       77.92240      176.51977650        0.88817117
       78.02210      172.95562097        0.94808332
       78.12179      165.06091864        0.98793153
       78.22148      152.37338564        1.00164429
       78.32118      142.01184574        1.12013027
       78.42087      125.22400901        0.82550778
       78.52056      107.92806817        0.78913944
       78.62026       93.74739796        0.72797533
       78.71995       80.42618735        0.67502745
       78.81964       73.98728399        0.72241940
       78.91934       67.12629381        0.53258670
       79.01903       62.75955192        0.56419392
       79.11872       59.71543693        0.57246632
       79.21842       57.66233158        0.59990110
       79.31811       57.94157146        0.67741463
       79.41780       56.43563438        0.54219408
       79.51750       57.46462144        0.55602767
       79.61719       59.25246167        0.56644806
       79.71689       61.12417620        0.59751741
       79.81658       63.38064991        0.64523309
       79.91627       63.60931525        0.54793989
       80.01597       63.98075962        0.56488075
       80.11566       64.55243142        0.59319634
       80.21535       64.79447277        0.63531303
       80.31505       67.46130834        0.77097527
       80.41474       67.20050556        0.59125643
       80.51443       69.18985658        0.59752118
       80.61413       69.98968798        0.62097701
       80.71382       74.50429176        0.66327985
       80.81351       76.30581563        0.75448746
       80.91321       77.25828184        0.55989990
       81.01290       86.90267651        0.64202425
       81.11259      100.51483700        0.74685797
       81.21229      114.08253463        0.86242248
       81.31198      127.63456722        1.01968644
       81.41167      149.01703885        0.86552905
       81.51137      175.25366073        0.96952933
       81.61106      197.22392101        1.07755077
       81.71075      215.30504777        1.16843355
       81.81045      229.23166003        1.27993416
       81.91014      261.06221434        1.05544007
       82.00983      294.49524378        1.20432743
       82.10953      320.97702104        1.41223745
       82.20922      340.49157877        1.62246036
       82.30891      352.70340192        1.73470937
       82.40861      357.96566721        1.42228345
       82.50830      351.56969135        1.40446304
       82.60799      348.87551868        1.50645981
       82.70769      335.82123340        1.60516293
       82.80738      330.09567126        1.51917740
       82.90707      310.44569769        1.19268000
       83.00677      289.05698522        1.22223173
       83.10646      264.33836908        1.37004052
       83.20615      242.45607492        1.45558678
       83.30585      222.86072850        1.31809070
       83.40554      192.20020444        1.01284698
       83.50524      158.63890128        0.89316288
       83.60493      130.31573024        0.88784707
       83.70462      113.36208768        0.93132313
       83.80432      103.99865621        0.77850917
       83.90401       85.49417585        0.59042283
       84.00370       76.97656867        0.58363602
       84.10340       69.93613340        0.66408944
       84.20309       68.18150306        0.79588867
       84.30278       65.37639023        0.63356306
       84.40248       63.12622768        0.54927263
       84.50217       62.67674499        0.53691038
       84.60186       62.19243251        0.60471609
       84.70156       63.57199657        0.80024463
       84.80125       63.16131536        0.55530259
       84.90094       64.91365062        0.50586418
       85.00064       63.93263684        0.51715005
       85.10033       63.59333773        0.61037221
       85.20002       64.38386070        1.05348068
       85.29972       64.52894402        0.55635737
       85.39941       66.88271016        0.57771972
       85.49910       66.70401665        0.56104904
       85.59880       67.85318029        0.63641703
       85.69849       67.61874590        1.14056739
       85.79818       67.16564164        0.53589028
       85.89788       66.52961783        0.52054638
       85.99757       66.71190114        0.53561182
       86.09726       67.64670459        0.61935514
       86.19696       66.00671570        1.17472450
       86.29665       68.06916729        0.56473223
       86.39634       66.80368317        0.56904301
       86.49604       64.60364113        0.55092194
       86.59573       62.66711175        0.57794141
       86.69542       62.50676432        1.20677796
       86.79512       59.93619252        0.49031752
       86.89481       59.98785969        0.48362077
       86.99451       57.66242303        0.49128327
       87.09420       56.74342388        0.54344402
       87.19389       53.11168061        1.24463777
       87.29359       55.04110568        0.51367070
       87.39328       52.74603319        0.50943802
       87.49297       50.74689625        0.48491718
       87.59267       50.51157742        0.49328477
       87.69236       52.38822055        1.50371262
       87.79205       51.00428502        0.46208511
       87.89175       52.45720360        0.46496500
       87.99144       51.91004944        0.48192076
       88.09113       53.03988041        0.51786984
       88.19083       49.04796432        2.63345716
       88.29052       51.69847536        0.51438121
       88.39021       50.74454124        0.51292528
       88.48991       50.72629476        0.49217309
       88.58960       51.68852368        0.48120689
       88.68929       48.83409908        3.62156064
       88.78899       50.91581736        0.46093080
       88.88868       51.70539264        0.45440867
       88.98837       50.97973434        0.46923961
       89.08807       49.76219106        0.47475545
       89.18776       48.18341923        3.80005977
       89.28745       49.41259379        0.48063002
       89.38715       51.50694830        0.49593090
       89.48684       54.11927983        0.49770024
       89.58653       56.41442362        0.49801828
       89.68623       52.31151341        3.88498148
       89.78592       61.19713937        0.50442602
       89.88561       64.86572432        0.50945249
       89.98531       69.65167738        0.54176318
       90.08500       77.36666399        0.59296801
       90.18469       81.06698991        5.06552291
       90.28439       83.94515228        0.63152725
       90.38408       90.46798177        0.66734102
       90.48377       97.45277764        0.68041489
       90.58347      101.91092214        0.68537152
       90.68316       99.11087853        5.26231812
       90.78286      102.69348338        0.65865342
       90.88255      102.31209705        0.63965644
       90.98224      103.95801601        0.66729578
       91.08194      103.22916923        0.68668266
       91.18163      104.27143114        5.50809653
       91.28132      101.46959293        0.70074424
       91.38102       97.17015711        0.70341908
       91.48071       91.36621760        0.66469053
       91.58040       83.59231435        0.61406528
       91.68010       85.36380160        4.69600484
       91.77979       75.12752492        0.55802613
       91.87948       69.64446926        0.52848185
       91.97918       64.80138343        0.52891267
       92.07887       64.06875718        0.54776759
       92.17856       60.77004077        4.05393978
       92.27826       63.40616220        0.56273548
       92.37795       63.01900318        0.57428499
       92.47764       64.86366419        0.55326701
       92.57734       70.61546855        0.56057456
       92.67703       74.51097695        3.74036677
       92.77672       78.94707099        0.57208522
       92.87642       87.17797897        0.59052295
       92.97611       94.55392852        0.64299187
       93.07580      100.53057496        0.75746927
       93.17550      101.92492511        1.43452634
       93.27519      102.63097122        0.70568521
       93.37488      105.09904771        0.69446754
       93.47458      107.19452117        0.70932112
       93.57427      109.69889648        0.82994189
       93.67396      109.24790931        1.11920191
       93.77366      110.04191692        0.69593490
       93.87335      108.12798737        0.65873280
       93.97304      101.45055976        0.66419280
       94.07274       94.43605042        0.83097739
       94.17243       92.19985508        0.93650975
       94.27212       87.22492244        0.67786932
       94.37182       82.19056428        0.64074751
       94.47151       75.44833691        0.58724032
       94.57121       70.90083909        0.75071058
       94.67090       69.27687845        0.75044702
       94.77059       67.02176541        0.57357933
       94.87029       63.74268246        0.50837099
       94.96998       60.87846839        0.50286469
       95.06967       61.25008803        0.58150074
       95.16937       60.59763217        0.79167860
       95.26906       60.20548753        0.60956921
       95.36875       59.40115605        0.54933888
       95.46845       59.00261649        0.52612912
       95.56814       58.48073804        0.60267578
       95.66783       57.90450443        0.67366763
       95.76753       56.40802270        0.54931222
       95.86722       55.11535971        0.46176653
       95.96691       54.27774373        0.47524583
       96.06661       53.05676234        0.60178575
       96.16630       52.82565515        0.64031825
       96.26599       52.48603931        0.57316218
       96.36569       51.96126876        0.51166246
       96.46538       50.51277266        0.48674562
       96.56507       48.67250915        0.58953742
       96.66477       49.92953076        0.58196004
       96.76446       48.47098823        0.51226808
       96.86415       49.73507151        0.44957120
       96.96385       49.86186841        0.46493857
       97.06354       51.28351199        0.63774928
       97.16323       51.68976993        0.61224297
       97.26293       52.12986513        0.57768974
       97.36262       52.71721898        0.53801927
       97.46231       51.91535877        0.49112104
       97.56201       53.72375446        0.63581414
       97.66170       52.08288735        0.56213099
       97.76139       53.94950443        0.51992869
       97.86109       54.24560820        0.47145769
       97.96078       56.60147924        0.49230765
       98.06047       56.17221695        0.68115741
       98.16017       55.67739522        0.60279899
       98.25986       57.21024330        0.58380752
       98.35956       56.29444496        0.54665066
       98.45925       58.99272790        0.52257131
       98.55894       60.53617764        0.69071607
       98.65864       62.41314820        0.60195607
       98.75833       64.53798560        0.57215096
       98.85802       67.65330431        0.54726308
       98.95772       70.68930804        0.55596513
       99.05741       72.09207025        0.77962474
       99.15710       75.88645171        0.68834317
       99.25680       77.24438141        0.67297018
       99.35649       81.14892915        0.65739337
       99.45618       83.61985478        0.62215199
       99.55588       86.50109130        0.84592814
       99.65557       88.17475567        0.70480195
       99.75526       86.70361243        0.65488854
       99.85496       89.24798915        0.63266393
       99.95465       88.84594480        0.61880964
      100.05434       90.57006624        0.89031894
      100.15404       90.72237894        0.75055969
      100.25373       90.08371231        0.73887521
      100.35342       87.59369946        0.72543438
      100.45312       86.10405598        0.65613919
      100.55281       83.44142949        0.84796205
      100.65250       79.83152425        0.67527372
      100.75220       77.73570994        0.61700649
      100.85189       72.77728458        0.56995164
      100.95158       71.03756640        0.54788883
      101.05128       71.48980980        0.78366898
      101.15097       70.48653608        0.64301289
      101.25066       70.37843548        0.63480498
      101.35036       71.72153257        0.64653884
      101.45005       72.40726752        0.61095357
      101.54974       73.79010950        0.76837861
      101.64944       75.38508197        0.63381449
      101.74913       78.24687938        0.60871997
      101.84882       83.34707774        0.61208332
      101.94852       85.73513092        0.65418751
      102.04821       87.06975327        0.79423982
      102.14791       87.63274254        0.71817216
      102.24760       91.47301874        0.72802245
      102.34729       88.78075146        0.71397197
      102.44699       91.88641082        0.73937464
      102.54668       90.86159323        0.77136647
      102.64637       93.52440499        0.69926580
      102.74607       94.99978533        0.67136028
      102.84576       93.69103488        0.65391316
      102.94545       95.38117249        0.75167963
      103.04515       94.67894700        0.79271768
      103.14484       93.95443712        0.73770967
      103.24453       91.45856199        0.71630968
      103.34423       88.35963262        0.69799919
      103.44392       87.81485321        0.75368820
      103.54361       85.81490426        0.72353441
      103.64331       86.13907187        0.65988847
      103.74300       82.83111272        0.61688963
      103.84269       82.68850721        0.60567401
      103.94239       80.57211348        0.71821395
      104.04208       78.11702843        0.68387003
      104.14177       79.65339080        0.67203313
      104.24147       79.72281923        0.67199202
      104.34116       81.22993694        0.68270237
      104.44085       81.23608080        0.77541431
      104.54055       79.84947213        0.69586939
      104.64024       79.77137617        0.65378463
      104.73993       77.38316222        0.61422050
      104.83963       74.38244030        0.57987553
      104.93932       71.66564994        0.68969950
      105.03901       72.22385160        0.65245667
      105.13871       70.03597465        0.61841428
      105.23840       68.89521544        0.61288420
      105.33809       65.26522913        0.59966472
      105.43779       65.05910567        0.69660672
      105.53748       62.95045122        0.61427876
      105.63717       59.66294149        0.54784688
      105.73687       57.59457627        0.51207646
      105.83656       56.66768928        0.49486794
      105.93626       55.78982333        0.62214974
      106.03595       54.24923822        0.55588259
      106.13564       52.50247079        0.52838895
      106.23534       53.06877753        0.53782557
      106.33503       51.83648041        0.53679946
      106.43472       51.78700033        0.63431115
      106.53442       50.60913835        0.54530480
      106.63411       49.30825502        0.48883703
      106.73380       49.52182250        0.46693300
      106.83350       49.91598260        0.46182036
      106.93319       50.77594464        0.60389113
      107.03288       50.36090193        0.53298945
      107.13258       52.43343032        0.52806818
      107.23227       52.31944656        0.53513886
      107.33196       52.86821933        0.53651268
      107.43166       52.83348779        0.64442747
      107.53135       55.61785732        0.57075010
      107.63104       57.20856969        0.52722812
      107.73074       59.90922292        0.51787246
      107.83043       63.62065532        0.52726559
      107.93012       65.68356468        0.70897369
      108.02982       67.27815159        0.62819611
      108.12951       67.03849759        0.59629911
      108.22920       68.28425588        0.59229172
      108.32890       71.37156594        0.60007994
      108.42859       72.03455322        0.76521131
      108.52828       72.80551607        0.65264028
      108.62798       73.89634674        0.59631453
      108.72767       75.97020056        0.58054640
      108.82736       75.10793953        0.58987364
      108.92706       73.62163811        0.73945239
      109.02675       74.47497959        0.65073088
      109.12644       73.94043379        0.63278051
      109.22614       73.73982294        0.63239691
      109.32583       72.24771615        0.68193277
      109.42552       72.42194621        0.72019992
      109.52522       70.57913924        0.64123789
      109.62491       70.39250732        0.60909887
      109.72461       65.65167920        0.56192127
      109.82430       63.96164334        0.51795679
      109.92399       60.92739979        0.65692741
      110.02369       60.37342562        0.57260002
      110.12338       60.08858955        0.56749754
      110.22307       58.39733640        0.55510452
      110.32277       57.02473398        0.56001708
      110.42246       56.15352259        0.67559324
      110.52215       55.17304464        0.56708933
      110.62185       55.40964068        0.53562445
      110.72154       53.41015130        0.49044264
      110.82123       54.17006122        0.51016851
      110.92093       55.21955664        0.60086878
      111.02062       55.53871703        0.55674788
      111.12031       56.61465035        0.56641769
      111.22001       57.10043973        0.55823335
      111.31970       57.49533695        0.60797041
      111.41939       57.88419271        0.63127483
      111.51909       58.27745450        0.57478657
      111.61878       60.54154210        0.55209320
      111.71847       62.55630578        0.52231882
      111.81817       65.64859213        0.58105223
      111.91786       68.36543758        0.62430329
      112.01755       70.62538133        0.61983220
      112.11725       72.86534777        0.63459850
      112.21694       74.54353117        0.63916710
      112.31663       75.59168979        0.70939308
      112.41633       77.70161831        0.70681574
      112.51602       79.96306843        0.66055084
      112.61571       82.56255417        0.64056122
      112.71541       86.18809536        0.61715317
      112.81510       89.42404842        0.70525924
      112.91479       88.77905532        0.71573932
      113.01449       88.38386715        0.69927949
      113.11418       90.59445709        0.70587173
      113.21387       89.76173621        0.69932399
      113.31357       90.82727986        0.78139223
      113.41326       91.16219025        0.74400451
      113.51296       92.29150379        0.70430592
      113.61265       91.62367879        0.67704389
      113.71234       91.71475057        0.64702516
      113.81204       90.75588687        0.73724979
      113.91173       88.22958837        0.70409052
      114.01142       86.87263222        0.69145692
      114.11112       84.10471535        0.67966824
      114.21081       84.11880069        0.68464331
      114.31050       83.03650337        0.77125819
      114.41020       82.00463782        0.70811762
      114.50989       79.17046913        0.65104033
      114.60958       77.80973426        0.62443785
      114.70928       75.81111957        0.59426725
      114.80897       73.03729341        0.66124690
      114.90866       72.45283487        0.62112650
      115.00836       69.63815256        0.60580144
      115.10805       70.66497311        0.61368409
      115.20774       69.57830777        0.61804656
      115.30744       70.15506083        0.71263657
      115.40713       70.42423629        0.64674440
      115.50682       71.31670109        0.61452794
      115.60652       71.82260086        0.59441349
      115.70621       71.89180565        0.57155613
      115.80590       73.93058902        0.67639276
      115.90560       76.50938726        0.62393759
      116.00529       79.60784101        0.64389090
      116.10498       83.33992173        0.66612221
      116.20468       86.84570268        0.69601960
      116.30437       91.05333877        0.85017302
      116.40406       94.54946227        0.75499870
      116.50376      100.49336482        0.73630252
      116.60345      105.90030095        0.72622943
      116.70314      114.84206035        0.73444287
      116.80284      126.86920207        0.91909157
      116.90253      130.52110003        0.83910244
      117.00222      139.82506871        0.86298002
      117.10192      143.25259919        0.89741448
      117.20161      150.47548614        0.93208894
      117.30131      148.95233356        1.10941422
      117.40100      157.48136606        0.96039089
      117.50069      161.61266364        0.92466749
      117.60039      170.06392797        0.90903593
      117.70008      176.26422963        0.89749069
      117.79977      183.34971527        1.12299096
      117.89947      184.18085488        0.97859472
      117.99916      188.70432256        1.00310403
      118.09885      186.83838705        1.01653191
      118.19855      188.75004579        1.07047537
      118.29824      194.88866963        1.19366594
      118.39793      191.66893344        1.07419342
      118.49763      193.15255016        1.01781063
      118.59732      193.78491762        0.98438552
      118.69701      189.14172375        1.01233598
      118.79671      183.78939953        1.07655435
      118.89640      180.30634491        0.99359816
      118.99609      173.91130368        0.97373725
      119.09579      169.19444202        0.97087204
      119.19548      164.22191736        1.04426160
      119.29517      161.47080554        1.07528797
      119.39487      155.95845069        0.97055906
      119.49456      150.81593198        0.89864035
      119.59425      142.74433309        0.84789487
      119.69395      137.15371196        0.87602008
      119.79364      131.46705358        0.86594720
      119.89333      128.76325683        0.82903830
      119.99303      126.74568322        0.80279583
      120.09272      123.41801548        0.80978515
      120.19241      123.02603381        0.90870744
      120.29211      121.61893653        0.89407017
      120.39180      120.35084648        0.84834061
      120.49149      117.16151899        0.77805337
      120.59119      116.84283192        0.75411755
      120.69088      114.04474089        0.80165068
      120.79057      114.41965156        0.78577973
      120.89027      114.70602000        0.77245492
      120.98996      114.87588198        0.76710790
      121.08966      114.77112713        0.77248428
      121.18935      117.03360981        0.89449604
      121.28904      114.88208867        0.86345372
      121.38874      116.29018705        0.82170499
      121.48843      114.86718819        0.77115773
      121.58812      116.11347761        0.73962595
      121.68782      118.43812507        0.82786850
      121.78751      118.78349072        0.79007453
      121.88720      119.97738752        0.78404194
      121.98690      121.07888713        0.79368262
      122.08659      120.00757836        0.80584082
      122.18628      117.19166293        0.92334864
      122.28598      116.19049347        0.86444334
      122.38567      115.21253718        0.82427842
      122.48536      115.61327397        0.78112050
      122.58506      113.66210822        0.73329080
      122.68475      112.11968423        0.82507687
      122.78444      110.89367404        0.77248025
      122.88414      107.48093249        0.75360697
      122.98383      104.13558486        0.75655355
      123.08352      100.62633135        0.73689583
      123.18322       98.74507224        0.85110822
      123.28291       97.10929272        0.76687916
      123.38260       96.86942654        0.73937307
      123.48230       96.53055541        0.71132831
      123.58199       94.63159062        0.65807346
      123.68168       93.74756008        0.74730115
      123.78138       91.16406639        0.66456970
      123.88107       89.77025925        0.64406825
      123.98076       87.46702038        0.64725680
      124.08046       84.91079068        0.63073247
      124.18015       85.55125073        0.71666798
      124.27984       85.33566379        0.64125437
      124.37954       82.45728858        0.59452126
      124.47923       79.51976104        0.56968315
      124.57893       75.09612293        0.58936653
