        5.04651       56.00225495        1.15013556
        5.14621       54.82133337        1.09647184
        5.24590       55.00740559        1.08261560
        5.34559       52.76304546        0.97209080
        5.44529       50.49945551        1.03420629
        5.54498       51.90630383        0.88220162
        5.64467       50.45113983        0.86192791
        5.74437       50.44482070        0.77800210
        5.84406       50.37598628        0.78678930
        5.94375       49.79107126        0.78108044
        6.04345       50.30135589        0.76291289
        6.14314       49.89688594        0.69566940
        6.24283       49.77899713        0.71776965
        6.34253       48.78043172        0.67758531
        6.44222       47.76364975        0.70587312
        6.54191       48.09977649        0.67109433
        6.64161       48.86848641        0.64089912
        6.74130       49.32572473        0.64654260
        6.84099       48.72115959        0.63784887
        6.94069       48.04338457        0.64285860
        7.04038       47.27259939        0.58854664
        7.14007       48.55234271        0.59535568
        7.23977       46.55267951        0.57257515
        7.33946       48.16453565        0.59148408
        7.43915       48.17142497        0.58380839
        7.53885       47.82540444        0.57094065
        7.63854       47.69194979        0.54491768
        7.73823       47.73917515        0.56610515
        7.83793       47.67104849        0.54742903
        7.93762       47.03742907        0.56717708
        8.03732       47.53980569        0.51141310
        8.13701       47.67760027        0.50985410
        8.23670       47.57454191        0.51648005
        8.33640       47.48835257        0.51614597
        8.43609       47.78061812        0.54129469
        8.53578       47.68385407        0.50366514
        8.63548       46.95257012        0.49398085
        8.73517       46.83927157        0.48397132
        8.83486       46.71696693        0.48450579
        8.93456       46.56587956        0.48122462
        9.03425       46.58850805        0.46724828
        9.13394       46.31645156        0.46673705
        9.23364       46.06088213        0.47222260
        9.33333       46.95512554        0.48656759
        9.43302       46.96197807        0.48678473
        9.53272       46.74143447        0.46921473
        9.63241       47.17859804        0.48476507
        9.73210       46.90948333        0.48238901
        9.83180       46.63315345        0.50113917
        9.93149       46.38436021        0.49620150
       10.03118       46.60222309        0.47857873
       10.13088       47.37729161        0.47104288
       10.23057       47.14541564        0.49204940
       10.33026       47.24731732        0.50917466
       10.42996       47.22447488        0.50207484
       10.52965       48.21750949        0.49140640
       10.62934       48.78057448        0.49550330
       10.72904       48.33819111        0.50050774
       10.82873       48.62935964        0.49950845
       10.92842       49.44556570        0.51219826
       11.02812       48.66470583        0.48404273
       11.12781       48.92055723        0.50274401
       11.22750       49.66679396        0.51167708
       11.32720       50.23692180        0.52849947
       11.42689       50.83077092        0.51322269
       11.52658       52.78978640        0.51696156
       11.62628       53.99456923        0.52861078
       11.72597       55.54982997        0.54770563
       11.82567       59.65860686        0.58379931
       11.92536       62.08052704        0.55754341
       12.02505       67.50697274        0.58465542
       12.12475       73.11453644        0.60848854
       12.22444       81.32577638        0.68144822
       12.32413       92.26328011        0.73824104
       12.42383      103.86617989        0.74487878
       12.52352      118.95642957        0.79414444
       12.62321      139.88741829        0.88855572
       12.72291      165.12212914        0.94307519
       12.82260      189.60147695        1.10255743
       12.92229      212.20484546        1.06288142
       13.02199      240.04354245        1.12600729
       13.12168      267.44651757        1.21380119
       13.22137      297.07115196        1.32610902
       13.32107      319.14176523        1.42272644
       13.42076      346.53420310        1.43227414
       13.52045      363.98901809        1.48882672
       13.62015      364.35599464        1.44347594
       13.71984      347.87823293        1.46663275
       13.81953      319.65431232        1.42435372
       13.91923      281.71039524        1.24972092
       14.01892      222.60585945        1.07286049
       14.11861      168.90844755        0.96775550
       14.21831      134.95077839        0.86179945
       14.31800      106.82849517        0.80392980
       14.41769       83.04929571        0.68020743
       14.51739       70.06056099        0.60834480
       14.61708       60.47777300        0.56579524
       14.71677       54.24442849        0.54405120
       14.81647       52.14853400        0.55863508
       14.91616       49.14100401        0.49844441
       15.01585       49.18069549        0.50764177
       15.11555       49.41994354        0.51479501
       15.21524       48.13353552        0.52350726
       15.31493       48.18878373        0.53644436
       15.41463       46.53927627        0.51028657
       15.51432       46.13298439        0.49227754
       15.61402       47.19443337        0.51061105
       15.71371       47.20410374        0.50715652
       15.81340       46.64075323        0.52438225
       15.91310       46.20230223        0.50708015
       16.01279       45.93532606        0.48409694
       16.11248       46.57540933        0.50060394
       16.21218       46.74578808        0.51543220
       16.31187       47.39557394        0.52033003
       16.41156       48.32889519        0.51572817
       16.51126       47.99063204        0.52257901
       16.61095       48.34085254        0.50575162
       16.71064       49.24322575        0.52667120
       16.81034       51.49506150        0.54041984
       16.91003       52.04585905        0.52768429
       17.00972       54.01202252        0.51622989
       17.10942       57.06183226        0.56111102
       17.20911       60.20808354        0.58177247
       17.30880       64.73274229        0.60893970
       17.40850       67.45445508        0.62174175
       17.50819       70.97737728        0.61964368
       17.60788       74.42526105        0.65459956
       17.70758       75.65963737        0.66286541
       17.80727       73.49478379        0.66113279
       17.90696       71.07839218        0.60764719
       18.00666       68.44244393        0.60647163
       18.10635       62.81827721        0.56460166
       18.20604       59.84865652        0.60426096
       18.30574       57.02408433        0.56187599
       18.40543       55.79858082        0.54194082
       18.50512       54.19121501        0.55078107
       18.60482       52.58111099        0.53387909
       18.70451       51.41128974        0.55775777
       18.80420       51.51134095        0.52449280
       18.90390       50.37299741        0.51302683
       19.00359       48.85774463        0.49191502
       19.10328       49.20126170        0.52229798
       19.20298       47.26685266        0.52767949
       19.30267       47.80883272        0.50968629
       19.40237       46.39216990        0.49627337
       19.50206       45.68355581        0.50478800
       19.60175       45.61772157        0.49876226
       19.70145       44.74223951        0.51787671
       19.80114       45.28240905        0.49417750
       19.90083       44.75562805        0.47464816
       20.00053       46.29748582        0.49145254
       20.10022       46.15614315        0.49433413
       20.19991       46.74003285        0.53188454
       20.29961       48.04245892        0.51105246
       20.39930       48.66718592        0.52996049
       20.49899       49.78905206        0.52682418
       20.59869       51.45266902        0.54550284
       20.69838       51.02278528        0.56320896
       20.79807       52.54721406        0.54529876
       20.89777       53.83829362        0.53959095
       20.99746       55.16754380        0.55176965
       21.09715       55.92905285        0.58526415
       21.19685       57.40789415        0.59001194
       21.29654       57.49266300        0.57598654
       21.39623       57.32218595        0.57514510
       21.49593       55.17662460        0.55600665
       21.59562       54.57045693        0.56619961
       21.69531       51.17161706        0.56995125
       21.79501       48.74377945        0.50865822
       21.89470       47.16482824        0.48895899
       21.99439       46.39821497        0.50546314
       22.09409       45.72614350        0.50297360
       22.19378       44.93154158        0.52941867
       22.29347       45.72279256        0.49746217
       22.39317       46.04318002        0.51216276
       22.49286       46.36541436        0.51356982
       22.59255       46.76519256        0.52188007
       22.69225       48.15545940        0.55820771
       22.79194       50.21537617        0.51211591
       22.89163       53.53092066        0.51871261
       22.99133       57.87206013        0.55470909
       23.09102       62.04600901        0.59693342
       23.19072       65.81720556        0.61665894
       23.29041       69.60842770        0.62668490
       23.39010       69.78919081        0.63409161
       23.48980       68.39123182        0.62983565
       23.58949       65.74093572        0.62550587
       23.68918       61.20808361        0.63418082
       23.78888       58.38923183        0.55174458
       23.88857       53.16055347        0.53286717
       23.98826       49.47075069        0.52518751
       24.08796       47.38629050        0.50380661
       24.18765       46.69823275        0.53583477
       24.28734       44.75186975        0.49925316
       24.38704       44.29625561        0.50496685
       24.48673       43.88672129        0.50079395
       24.58642       43.43105092        0.51463057
       24.68612       43.81931458        0.51627770
       24.78581       44.25721388        0.47832904
       24.88550       43.92280066        0.47629645
       24.98520       45.87699392        0.50495438
       25.08489       44.74366366        0.50853513
       25.18458       46.35391916        0.52862597
       25.28428       47.29748813        0.51474471
       25.38397       48.24851043        0.51745414
       25.48366       49.81031246        0.52905126
       25.58336       53.65198241        0.57267984
       25.68305       61.11344176        0.60022002
       25.78274       69.84782191        0.60650043
       25.88244       84.84507876        0.68699340
       25.98213      105.22169998        0.77379158
       26.08182      127.84393909        0.87835226
       26.18152      152.01886791        0.98456126
       26.28121      174.73508479        1.00182797
       26.38090      192.24389435        1.06246570
       26.48060      199.19245094        1.11256585
       26.58029      189.98579877        1.13200185
       26.67998      172.68140604        1.01675431
       26.77968      147.18687084        0.92406666
       26.87937      115.39354034        0.80256987
       26.97907       92.83325798        0.71137237
       27.07876       80.28644079        0.71093751
       27.17845       75.68225385        0.65914920
       27.27815       78.81594789        0.65724509
       27.37784       80.86277301        0.69188942
       27.47753       85.37841168        0.70097846
       27.57723       84.99957350        0.73263227
       27.67692       84.06452435        0.71106014
       27.77661       77.44222504        0.65068930
       27.87631       70.43995248        0.60957742
       27.97600       62.69046474        0.58729235
       28.07569       56.90175576        0.59162477
       28.17539       52.61208734        0.54422370
       28.27508       49.23934361        0.52642174
       28.37477       49.27759614        0.53916517
       28.47447       49.10375805        0.53399371
       28.57416       49.26984436        0.57830374
       28.67385       50.83360466        0.52274807
       28.77355       52.63156497        0.52247409
       28.87324       55.62582954        0.55171966
       28.97293       56.90581205        0.55945586
       29.07263       57.25669346        0.61174899
       29.17232       57.69872439        0.56046833
       29.27201       55.81361529        0.56123990
       29.37171       54.40358602        0.56987743
       29.47140       51.50508889        0.54781738
       29.57109       49.17015329        0.56735862
       29.67079       47.48448403        0.50743942
       29.77048       46.86138149        0.50521405
       29.87017       47.31747132        0.49774192
       29.96987       45.81641345        0.51341758
       30.06956       46.59392430        0.53423169
       30.16925       46.38116528        0.50184363
       30.26895       46.80520575        0.50609562
       30.36864       48.94584471        0.52619261
       30.46833       49.46810256        0.53440039
       30.56803       51.84586369        0.57814847
       30.66772       54.85381257        0.55368107
       30.76742       57.79077361        0.55721098
       30.86711       60.94893935        0.58394957
       30.96680       62.38412788        0.59434326
       31.06650       62.48436367        0.62371176
       31.16619       61.70533408        0.58269522
       31.26588       58.89251076        0.56556780
       31.36558       57.34878864        0.56526627
       31.46527       57.25107723        0.58765583
       31.56496       58.31029251        0.60269998
       31.66466       62.27349638        0.58287105
       31.76435       69.67811495        0.61668100
       31.86404       78.43288030        0.64661330
       31.96374       85.78692636        0.69277282
       32.06343       87.91996131        0.72602236
       32.16312       88.78783953        0.68577178
       32.26282       82.91031249        0.67822069
       32.36251       78.51772571        0.68593845
       32.46220       74.79189715        0.68107310
       32.56190       70.83712157        0.67414465
       32.66159       68.16995648        0.62775488
       32.76128       65.89521321        0.60311329
       32.86098       64.81353040        0.60701368
       32.96067       64.15067099        0.61139843
       33.06036       61.24795119        0.60800188
       33.16006       58.62370642        0.55993527
       33.25975       57.31544076        0.57150927
       33.35944       55.92508955        0.56745761
       33.45914       54.92865187        0.58366969
       33.55883       57.77628816        0.60030450
       33.65852       60.78046113        0.57443846
       33.75822       63.90716605        0.58830264
       33.85791       73.08421590        0.63264395
       33.95760       81.10352454        0.68700957
       34.05730       91.03641970        0.72192336
       34.15699      105.30461240        0.76581629
       34.25668      122.07122127        0.82377271
       34.35638      147.12382478        0.93122099
       34.45607      185.75173005        1.10829997
       34.55577      230.08982707        1.18280149
       34.65546      292.16952416        1.28911122
       34.75515      365.28056681        1.48316896
       34.85485      421.90880929        1.59337546
       34.95454      443.32781901        1.68915012
       35.05423      433.82317276        1.72618103
       35.15393      391.43529437        1.53155549
       35.25362      318.36615489        1.38931178
       35.35331      249.25948879        1.24968664
       35.45301      188.29674438        1.12377974
       35.55270      144.68457428        0.95319815
       35.65239      109.51793658        0.79673427
       35.75209       90.11736803        0.71530384
       35.85178       78.82901810        0.66689794
       35.95147       73.27942676        0.65754398
       36.05117       69.61869730        0.62734649
       36.15086       66.84255106        0.59079865
       36.25055       64.49108597        0.60605729
       36.35025       60.01301015        0.59563300
       36.44994       59.76638773        0.60626893
       36.54963       58.99310516        0.57814058
       36.64933       58.30606665        0.56612132
       36.74902       55.92906641        0.56002525
       36.84871       53.87981574        0.54551062
       36.94841       52.97939308        0.58489557
       37.04810       52.08644100        0.51128658
       37.14779       50.59438722        0.51411014
       37.24749       48.68895211        0.51819398
       37.34718       49.03205295        0.53331367
       37.44687       47.64318903        0.56457616
       37.54657       47.68647295        0.51565899
       37.64626       47.31685330        0.51165425
       37.74595       47.50181663        0.50465398
       37.84565       46.54564744        0.52848013
       37.94534       47.35329456        0.54311449
       38.04503       46.49325815        0.48633004
       38.14473       47.20942560        0.49492550
       38.24442       47.64295043        0.50631779
       38.34412       48.55961170        0.53450150
       38.44381       49.30216031        0.58242943
       38.54350       49.72535560        0.52144622
       38.64320       50.02126371        0.52143704
       38.74289       50.11624467        0.52876684
       38.84258       53.15737750        0.54617890
       38.94228       55.91240871        0.58780785
       39.04197       59.69694913        0.54803123
       39.14166       63.88779070        0.59018189
       39.24136       67.97035437        0.60752340
       39.34105       69.23671435        0.63466897
       39.44074       71.60385399        0.70429383
       39.54044       72.13749441        0.63213306
       39.64013       69.30705199        0.61741723
       39.73982       66.70125249        0.60788616
       39.83952       62.83370626        0.58562820
       39.93921       60.67387032        0.60996507
       40.03890       58.73911524        0.54918445
       40.13860       57.10223485        0.54062653
       40.23829       56.38151376        0.55613984
       40.33798       56.57115440        0.57445880
       40.43768       55.39707238        0.59464957
       40.53737       57.52756202        0.56263183
       40.63706       56.34702218        0.56840383
       40.73676       58.99152941        0.58093158
       40.83645       59.72589431        0.58949064
       40.93614       62.69632048        0.61440471
       41.03584       66.66850998        0.59663286
       41.13553       75.83514177        0.63800233
       41.23522       92.60558075        0.72409750
       41.33492      113.46365203        0.84175809
       41.43461      139.00037794        0.96531828
       41.53430      164.01937367        0.98567412
       41.63400      191.36489763        1.09233949
       41.73369      209.94582244        1.12219581
       41.83338      214.65262898        1.16574583
       41.93308      215.85087659        1.15877403
       42.03277      224.00618438        1.08029023
       42.13247      249.47814296        1.20270150
       42.23216      293.79076372        1.31556368
       42.33185      354.53062164        1.56392802
       42.43155      418.12895307        1.68708988
       42.53124      477.60898990        1.75862304
       42.63093      520.93904809        1.84967998
       42.73063      538.21642586        1.89239600
       42.83032      523.11368315        1.89513792
       42.93001      491.31288874        1.76105223
       43.02971      425.61062863        1.53598721
       43.12940      343.60395278        1.39340408
       43.22909      264.17227616        1.27055937
       43.32879      203.59710813        1.16524368
       43.42848      155.03253973        0.98753304
       43.52817      115.19732612        0.80960458
       43.62787       89.08946532        0.70675794
       43.72756       75.84988558        0.66619387
       43.82725       66.87336570        0.65223294
       43.92695       62.54851382        0.57161408
       44.02664       58.60827743        0.55031198
       44.12633       57.35878600        0.56459173
       44.22603       55.01993110        0.57532496
       44.32572       55.15089086        0.60710566
       44.42541       54.24862412        0.57478454
       44.52511       54.38038867        0.56001605
       44.62480       54.91208221        0.57075473
       44.72449       56.90402238        0.56324207
       44.82419       60.65948575        0.65295411
       44.92388       66.23564256        0.56957463
       45.02357       75.17307878        0.61264275
       45.12327       88.19345523        0.68491010
       45.22296      106.95646214        0.77639078
       45.32265      129.00616157        0.94640581
       45.42235      148.94235690        0.92861817
       45.52204      179.82165660        1.01476072
       45.62174      205.11552716        1.10749683
       45.72143      221.88829697        1.15452176
       45.82112      231.16170114        1.29166292
       45.92082      232.24569897        1.09927195
       46.02051      227.57039290        1.11058093
       46.12020      223.99772742        1.10493982
       46.21990      214.88218963        1.13582736
       46.31959      198.73843224        1.17682533
       46.41928      182.19313027        1.03828641
       46.51898      155.70565500        0.96138515
       46.61867      127.31072616        0.86117932
       46.71836      103.03437766        0.79162721
       46.81806       86.55094811        0.75036828
       46.91775       71.82586192        0.59440788
       47.01744       64.48723125        0.57595452
       47.11714       65.07264717        0.59183586
       47.21683       69.86699345        0.63180239
       47.31652       79.09582210        0.73448023
       47.41622       88.42226714        0.73289535
       47.51591      102.96530854        0.79411382
       47.61560      117.15719036        0.84176298
       47.71530      132.90584585        0.90835536
       47.81499      145.70221818        0.97682512
       47.91468      159.24681573        0.89514778
       48.01438      168.99761732        0.92387848
       48.11407      173.97196183        0.97316754
       48.21376      174.01871720        1.01620545
       48.31346      166.71059816        1.02891712
       48.41315      157.54263970        0.93108115
       48.51284      144.75931154        0.92049704
       48.61254      125.54194981        0.85125330
       48.71223      107.75723252        0.80079241
       48.81192       91.18316970        0.73299123
       48.91162       76.36423704        0.59991168
       49.01131       64.63281015        0.57017455
       49.11100       58.50583964        0.56145881
       49.21070       54.80102027        0.57014301
       49.31039       52.20888649        0.57248293
       49.41009       50.79349021        0.53330713
       49.50978       50.30106896        0.54165145
       49.60947       49.58338065        0.54164256
       49.70917       47.99901962        0.55252705
       49.80886       48.69507724        0.54169624
       49.90855       48.80939493        0.49403919
       50.00825       50.24245357        0.51195377
       50.10794       50.49245317        0.52492889
       50.20763       50.58866235        0.54896062
       50.30733       52.23107214        0.58445622
       50.40702       53.95336061        0.55721298
       50.50671       55.26720130        0.56574170
       50.60641       56.49811523        0.57293963
       50.70610       55.86809629        0.58617349
       50.80579       56.45139869        0.58150879
       50.90549       56.68346992        0.52537709
       51.00518       54.31221893        0.51861678
       51.10487       55.93211753        0.54417858
       51.20457       56.23915494        0.58094575
       51.30426       56.90288748        0.58139097
       51.40395       56.48415774        0.55526827
       51.50365       58.66459227        0.57256350
       51.60334       60.33729612        0.59230813
       51.70303       60.38204802        0.62923612
       51.80273       60.01049270        0.57536398
       51.90242       61.71948796        0.54533024
       52.00211       62.10524789        0.54965538
       52.10181       61.36708787        0.56360015
       52.20150       62.42656171        0.62612722
       52.30119       63.11780078        0.60655032
       52.40089       62.46497652        0.59388984
       52.50058       61.25946018        0.59911698
       52.60027       61.40439548        0.60803326
       52.69997       61.02523155        0.66424587
       52.79966       61.62190607        0.56123361
       52.89935       65.83372182        0.56013163
       52.99905       74.39864395        0.60605070
       53.09874       85.23158901        0.67076550
       53.19844       97.97685149        0.82522837
       53.29813      112.65124515        0.78819732
       53.39782      121.88814951        0.84931005
       53.49752      132.90189421        0.89237688
       53.59721      142.02680480        0.92307912
       53.69690      146.94849061        1.03100601
       53.79660      152.43972730        0.88040992
       53.89629      152.16784097        0.87009895
       53.99598      144.70642508        0.86820277
       54.09568      135.70578421        0.87676546
       54.19537      123.96208435        0.91221458
       54.29506      115.55300334        0.80807725
       54.39476      106.49751940        0.78067510
       54.49445       96.72932932        0.74336961
       54.59414       91.12953751        0.73186006
       54.69384       88.97817642        0.77121734
       54.79353       85.50612922        0.64794138
       54.89322       84.48104955        0.64162661
       54.99292       79.02207412        0.63813783
       55.09261       75.74183622        0.64935850
       55.19230       71.19440558        0.67557090
       55.29200       66.06188488        0.60517530
       55.39169       62.76802059        0.60833810
       55.49138       59.54314578        0.58998814
       55.59108       57.83597570        0.59994565
       55.69077       56.65668775        0.60927355
       55.79046       55.02970290        0.52482422
       55.89016       54.83026788        0.52260265
       55.98985       55.48782253        0.52915730
       56.08954       59.72065738        0.56747444
       56.18924       65.33233567        0.64116088
       56.28893       72.29978063        0.61801798
       56.38862       82.44280883        0.68377364
       56.48832       93.87758581        0.74357280
       56.58801      104.67953477        0.80928504
       56.68770      112.49826191        0.86697410
       56.78740      113.83891914        0.74653041
       56.88709      114.11054577        0.75491753
       56.98679      107.38138888        0.73218023
       57.08648       97.71990267        0.73927373
       57.18617       85.59808353        0.71501571
       57.28587       74.70248667        0.62299160
       57.38556       67.74681985        0.63085158
       57.48525       61.10814365        0.60999336
       57.58495       56.29069047        0.59839544
       57.68464       53.01903643        0.58548931
       57.78433       52.49942490        0.50962809
       57.88403       51.65916915        0.51135242
       57.98372       53.01382914        0.52638611
       58.08341       52.74947556        0.56769872
       58.18311       51.98027604        0.57639200
       58.28280       52.91489066        0.54784509
       58.38249       53.51784827        0.57575905
       58.48219       51.47484093        0.57665100
       58.58188       52.55074332        0.58912836
       58.68157       52.47985574        0.57689908
       58.78127       52.91650910        0.50674851
       58.88096       54.37595822        0.50623790
       58.98065       55.25665245        0.52983332
       59.08035       56.78825867        0.57329255
       59.18004       56.67417044        0.58095380
       59.27973       59.42320413        0.56152194
       59.37943       62.59805353        0.59564572
       59.47912       67.00853622        0.64201073
       59.57881       71.65974528        0.69605182
       59.67851       76.38386877        0.67050362
       59.77820       82.75243893        0.64222803
       59.87789       92.26912409        0.67679076
       59.97759      100.50230285        0.73986827
       60.07728      103.44639564        0.81322809
       60.17697      106.38063518        0.78598480
       60.27667      109.40768241        0.77535152
       60.37636      108.19258597        0.78582754
       60.47605      104.92650936        0.80689755
       60.57575       99.51173789        0.86043254
       60.67544       94.20986972        0.71864770
       60.77514       85.27184779        0.64903790
       60.87483       77.60817588        0.60641760
       60.97452       72.80154632        0.61827697
       61.07422       67.45095975        0.66794955
       61.17391       66.40847607        0.57401279
       61.27360       66.50647688        0.59484468
       61.37330       67.40047219        0.62113404
       61.47299       67.69285906        0.64986944
       61.57268       69.76882110        0.75053219
       61.67238       70.09035056        0.61314225
       61.77207       71.49567468        0.60325849
       61.87176       70.69562987        0.59310831
       61.97146       70.13730185        0.61327776
       62.07115       69.22507754        0.68993801
       62.17084       67.48380618        0.59664106
       62.27054       66.81627714        0.61895318
       62.37023       66.35048857        0.64131189
       62.46992       67.60074066        0.66965682
       62.56962       69.11070946        0.76067646
       62.66931       69.74598597        0.61567203
       62.76900       75.52546691        0.62506456
       62.86870       85.02320384        0.64976711
       62.96839       92.71701566        0.70106086
       63.06808       98.92809777        0.80669602
       63.16778      106.61116954        0.74430351
       63.26747      111.22217514        0.78727263
       63.36716      114.26390431        0.82848585
       63.46686      119.67921949        0.87407594
       63.56655      123.93748558        0.94560184
       63.66624      132.72941348        0.83290937
       63.76594      144.28978456        0.84511192
       63.86563      159.31711196        0.88741481
       63.96532      170.74476389        0.96307306
       64.06502      176.83509653        1.05101488
       64.16471      175.14595204        0.96725830
       64.26440      164.06424719        0.97285715
       64.36410      151.70660616        0.95257635
       64.46379      136.79319569        0.95438395
       64.56349      123.89371454        0.92256505
       64.66318      105.76433442        0.74390248
       64.76287       86.95800165        0.66417942
       64.86257       73.30692166        0.60753553
       64.96226       63.95258926        0.59346467
       65.06195       59.68582013        0.61950692
       65.16165       55.28962923        0.53746887
       65.26134       52.93609735        0.53799966
       65.36103       53.86736391        0.56639969
       65.46073       54.56275082        0.58884410
       65.56042       54.70311673        0.61581716
       65.66011       56.37774108        0.54528200
       65.75981       58.19782018        0.54864428
       65.85950       59.77675820        0.55263713
       65.95919       62.06330395        0.58968340
       66.05889       65.09690454        0.62498599
       66.15858       70.52123096        0.61913693
       66.25827       76.76772100        0.66873052
       66.35797       85.74758517        0.73731211
       66.45766       98.48776769        0.84131251
       66.55735      108.02795578        0.88216835
       66.65705      123.61207246        0.83911169
       66.75674      138.33678889        0.86698632
       66.85643      151.91777908        0.90010031
       66.95613      163.00258616        0.97109257
       67.05582      170.20796160        1.00090796
       67.15551      171.65726648        0.95675634
       67.25521      162.86483695        0.97682406
       67.35490      150.92167677        0.98810714
       67.45459      138.52428151        0.99651759
       67.55429      123.93984992        0.90111411
       67.65398      104.17731285        0.73824077
       67.75367       88.72195062        0.67406071
       67.85337       80.22484867        0.64798599
       67.95306       75.75330210        0.67282105
       68.05275       75.65378278        0.63665879
       68.15245       80.53249928        0.65172805
       68.25214       86.97219743        0.71959565
       68.35184       92.81235786        0.77541773
       68.45153      100.32079413        0.88854088
       68.55122      106.31646287        0.78871922
       68.65092      115.78197680        0.76832908
       68.75061      126.11340155        0.81150124
       68.85030      127.45377551        0.83166771
       68.95000      128.39912921        0.94656156
       69.04969      124.20079887        0.78569013
       69.14938      114.35758723        0.77403324
       69.24908      102.76436443        0.78216305
       69.34877       93.22610448        0.76935998
       69.44846       86.04569595        0.85638298
       69.54816       77.14854504        0.63133939
       69.64785       69.08602024        0.58826639
       69.74754       60.40411386        0.55479412
       69.84724       55.16917691        0.54355879
       69.94693       53.21493451        0.60228117
       70.04662       49.99456000        0.47979642
       70.14632       47.81022049        0.48771719
       70.24601       47.98256798        0.52317084
       70.34570       46.48789586        0.54478274
       70.44540       47.98818170        0.65232837
       70.54509       48.51925999        0.51346458
       70.64478       49.05737734        0.51561803
       70.74448       49.41354678        0.52572120
       70.84417       49.64767350        0.54684540
       70.94386       49.20215075        0.59753721
       71.04356       50.54513412        0.50128014
       71.14325       51.31340853        0.52493279
       71.24294       54.30432563        0.56847742
       71.34264       53.95152425        0.60078350
       71.44233       54.53659090        0.67410321
       71.54202       55.14518023        0.55191622
       71.64172       53.96839795        0.53100716
       71.74141       53.78248876        0.52045572
       71.84110       52.41054440        0.53171101
       71.94080       51.36227446        0.57347112
       72.04049       52.06293215        0.48874559
       72.14019       52.05667918        0.50919505
       72.23988       51.97973637        0.53237547
       72.33957       53.23534385        0.60193736
       72.43927       53.01847034        0.66123655
       72.53896       52.37081521        0.52686151
       72.63865       53.21502166        0.51919340
       72.73835       54.61215734        0.51452186
       72.83804       56.21542192        0.55138687
       72.93773       58.96687445        0.60014210
       73.03743       60.50270698        0.52781008
       73.13712       62.14115510        0.56426183
       73.23681       63.81654998        0.60092031
       73.33651       64.14705941        0.66297206
       73.43620       63.43919066        0.71403231
       73.53589       62.80824586        0.57306823
       73.63559       63.83310486        0.56875353
       73.73528       65.63572329        0.57428679
       73.83497       65.17350001        0.60664253
       73.93467       64.51720157        0.63549975
       74.03436       65.12860274        0.56513366
       74.13405       64.02087017        0.58401695
       74.23375       61.43997624        0.59568335
       74.33344       63.60538702        0.66747152
       74.43313       63.10546496        0.68982257
       74.53283       65.37199044        0.59676641
       74.63252       68.15607590        0.60521576
       74.73221       71.82950549        0.61866228
       74.83191       75.40078359        0.67279764
       74.93160       79.18879535        0.69770328
       75.03129       80.29390047        0.62469352
       75.13099       84.85399590        0.66567302
       75.23068       88.88002429        0.71108008
       75.33037       95.20442681        0.80978426
       75.43007      100.75226907        0.84581229
       75.52976      108.35795691        0.76280916
       75.62945      115.69405301        0.78842581
       75.72915      125.73778832        0.82000144
       75.82884      131.42297311        0.90341128
       75.92854      135.30959827        0.86104390
       76.02823      144.29144353        0.83513324
       76.12792      148.87213948        0.88728277
       76.22762      153.36475048        0.95085511
       76.32731      151.02507036        1.06523667
       76.42700      149.92236704        1.00153100
       76.52670      148.98020546        0.92091885
       76.62639      142.82583339        0.88941110
       76.72608      133.61899518        0.84472590
       76.82578      128.68846085        0.95446715
       76.92547      124.22666359        0.75058543
       77.02516      123.86675356        0.77677635
       77.12486      123.18243074        0.81363204
       77.22455      127.76422542        0.88296618
       77.32424      129.68655257        1.09320610
       77.42394      132.53088978        0.88281858
       77.52363      133.56909269        0.85656112
       77.62332      136.49303674        0.86232421
       77.72302      140.11360017        0.87616814
       77.82271      142.71086772        1.03743717
       77.92240      145.67263605        0.80300056
       78.02210      145.54965073        0.86608514
       78.12179      143.06880287        0.91673590
       78.22148      138.58211120        0.95339880
       78.32118      134.13840870        1.08761754
       78.42087      128.01759241        0.83538810
       78.52056      122.56933395        0.84339197
       78.62026      116.67451376        0.81563341
       78.71995      109.16695442        0.79063679
       78.81964      102.90031751        0.85653637
       78.91934       94.22960237        0.63421324
       79.01903       85.21900129        0.66025512
       79.11872       76.37009121        0.64951881
       79.21842       71.69614754        0.67082579
       79.31811       70.29570604        0.74804235
       79.41780       67.61282074        0.59484973
       79.51750       66.71934018        0.60033291
       79.61719       64.81699046        0.59325869
       79.71689       65.02523101        0.61695372
       79.81658       64.78029073        0.65273854
       79.91627       65.01559949        0.55432101
       80.01597       63.29544608        0.56200637
       80.11566       63.08631936        0.58650811
       80.21535       63.03107903        0.62666882
       80.31505       63.78749736        0.74951328
       80.41474       66.41527819        0.58794798
       80.51443       67.32082028        0.58944153
       80.61413       72.86273478        0.63416232
       80.71382       78.19388626        0.68020869
       80.81351       82.44024070        0.78537064
       80.91321       90.69601258        0.60828574
       81.01290      107.75363177        0.71774740
       81.11259      125.15245424        0.83720936
       81.21229      143.48673522        0.97240523
       81.31198      155.24621017        1.13027166
       81.41167      174.69971374        0.94155243
       81.51137      199.61475236        1.03931206
       81.61106      212.62074045        1.12209557
       81.71075      225.62673605        1.19859691
       81.81045      238.08989711        1.30681483
       81.91014      257.82275021        1.04871531
       82.00983      272.40985090        1.15461446
       82.10953      283.58501181        1.32001419
       82.20922      289.32952173        1.48402590
       82.30891      292.13371603        1.56421432
       82.40861      292.31338818        1.27240866
       82.50830      286.84431031        1.25608859
       82.60799      285.98718021        1.35086698
       82.70769      286.30776576        1.47101046
       82.80738      284.26346234        1.40002013
       82.90707      280.10051721        1.12781781
       83.00677      274.35200193        1.18836769
       83.10646      262.38387602        1.36504723
       83.20615      253.26954866        1.49087323
       83.30585      240.55759330        1.37391331
       83.40554      224.14529659        1.09997670
       83.50524      206.70214159        1.02809653
       83.60493      188.01469217        1.07721066
       83.70462      174.27490246        1.16709552
       83.80432      161.06311104        0.97860096
       83.90401      137.07109633        0.75448647
       84.00370      116.88420158        0.72439787
       84.10340       97.09763658        0.78646597
       84.20309       89.47834887        0.91546788
       84.30278       83.71626491        0.71949982
       84.40248       76.06674827        0.60453951
       84.50217       70.22087483        0.56927506
       84.60186       66.45006908        0.62578425
       84.70156       66.37086936        0.81839525
       84.80125       65.89778212        0.56770065
       84.90094       65.29035686        0.50756661
       85.00064       64.19671283        0.51844881
       85.10033       64.01347076        0.61267561
       85.20002       65.66373294        1.06456280
       85.29972       65.04066332        0.55883271
       85.39941       65.95754108        0.57384856
       85.49910       66.34827118        0.55974107
       85.59880       65.89672039        0.62721435
       85.69849       69.04156355        1.15325023
       85.79818       65.63060631        0.52980315
       85.89788       64.27800226        0.51166812
       85.99757       63.67157511        0.52319950
       86.09726       63.78394972        0.60125186
       86.19696       63.68887114        1.15391554
       86.29665       62.43058899        0.54052654
       86.39634       61.82759707        0.54718817
       86.49604       60.31535925        0.53214223
       86.59573       58.14712121        0.55649689
       86.69542       58.66348320        1.16878154
       86.79512       55.20440783        0.47036854
       86.89481       54.55160075        0.46093798
       86.99451       53.90707365        0.47489807
       87.09420       53.21298747        0.52615630
       87.19389       52.68551395        1.24004228
       87.29359       51.86423759        0.49855232
       87.39328       51.68418504        0.50439446
       87.49297       49.43139505        0.47867440
       87.59267       49.06148005        0.48622619
       87.69236       49.64115076        1.46364865
       87.79205       50.06668949        0.45792834
       87.89175       50.06798825        0.45424762
       87.99144       50.78126263        0.47675104
       88.09113       50.60401474        0.50582841
       88.19083       50.90803964        2.68487825
       88.29052       49.35047593        0.50256231
       88.39021       48.29423012        0.50037700
       88.48991       49.03994698        0.48397646
       88.58960       49.18150235        0.46937686
       88.68929       44.04799225        3.43804038
       88.78899       49.56557931        0.45485479
       88.88868       49.93091166        0.44658561
       88.98837       50.42192788        0.46680845
       89.08807       49.59048175        0.47411279
       89.18776       52.16021541        3.95809940
       89.28745       50.83308121        0.48780667
       89.38715       53.02442438        0.50351892
       89.48684       54.19267400        0.49824466
       89.58653       55.33503669        0.49333722
       89.68623       60.40532318        4.18227285
       89.78592       58.75403851        0.49424427
       89.88561       61.11446535        0.49437970
       89.98531       64.36514271        0.52053098
       90.08500       69.63540883        0.56203631
       90.18469       74.06196159        4.83781998
       90.28439       72.80553277        0.58724236
       90.38408       78.48820203        0.62055770
       90.48377       83.87977269        0.63003964
       90.58347       89.72974177        0.64202412
       90.68316       89.37548625        4.99084992
       90.78286       91.98915687        0.62248849
       90.88255       92.83379804        0.60856214
       90.98224       96.87679884        0.64364470
       91.08194       98.19690640        0.66942620
       91.18163       98.51354612        5.35071753
       91.28132      100.72607482        0.69836034
       91.38102       99.40619560        0.71202093
       91.48071       98.17216015        0.69007970
       91.58040       92.32149981        0.64655588
       91.68010       89.77355389        4.82133622
       91.77979       88.80452579        0.60836873
       91.87948       84.65160417        0.58438646
       91.97918       81.13514357        0.59373594
       92.07887       79.42971788        0.61177173
       92.17856       74.18145400        4.49118139
       92.27826       76.93737721        0.62157785
       92.37795       76.52841221        0.63458509
       92.47764       74.90050660        0.59580323
       92.57734       77.95552435        0.58997022
       92.67703       80.77338535        3.90013803
       92.77672       79.87202646        0.57574828
       92.87642       84.33962930        0.58077873
       92.97611       86.70237174        0.61513378
       93.07580       89.28948642        0.71277619
       93.17550       88.80913269        1.33658018
       93.27519       90.44457124        0.66134836
       93.37488       92.58815149        0.65068979
       93.47458       96.03740035        0.67038088
       93.57427       99.07736399        0.78762393
       93.67396       98.16248115        1.05931531
       93.77366       98.84677129        0.65858742
       93.87335       97.74511253        0.62544664
       93.97304       94.36253739        0.64004846
       94.07274       91.01815390        0.81564799
       94.17243       90.70122367        0.92899846
       94.27212       89.16882957        0.68588289
       94.37182       91.09957732        0.67588246
       94.47151       88.25378431        0.63677649
       94.57121       87.68131793        0.83758275
       94.67090       86.61077113        0.84194012
       94.77059       84.64125295        0.64679762
       94.87029       79.22536920        0.56850158
       94.96998       74.18063485        0.55659171
       95.06967       69.38057049        0.62001275
       95.16937       66.02908325        0.82750616
       95.26906       66.52469982        0.64172012
       95.36875       63.35429748        0.56794031
       95.46845       61.25625508        0.53650783
       95.56814       60.43248405        0.61310385
       95.66783       59.27427291        0.68202520
       95.76753       57.50305987        0.55494708
       95.86722       55.30846227        0.46277660
       95.96691       53.83152918        0.47344239
       96.06661       53.99895094        0.60744959
       96.16630       52.72604214        0.63996110
       96.26599       51.05007805        0.56535422
       96.36569       50.36939985        0.50382781
       96.46538       49.14557321        0.48019286
       96.56507       47.66673176        0.58354800
       96.66477       47.68993736        0.56876648
       96.76446       46.34285406        0.50091307
       96.86415       48.43811043        0.44374970
       96.96385       47.52612666        0.45391699
       97.06354       48.77151372        0.62191330
       97.16323       48.35565047        0.59206406
       97.26293       49.17165741        0.56099725
       97.36262       48.02219776        0.51329079
       97.46231       48.57401696        0.47496942
       97.56201       49.53731690        0.61034102
       97.66170       50.37643314        0.55290450
       97.76139       51.64510635        0.50870492
       97.86109       53.16923277        0.46685767
       97.96078       54.85215465        0.48468842
       98.06047       55.61759719        0.67799410
       98.16017       55.72978099        0.60333090
       98.25986       56.46886236        0.58017138
       98.35956       57.96845595        0.55510332
       98.45925       60.92171996        0.53143742
       98.55894       63.17646025        0.70622438
       98.65864       65.41734803        0.61684108
       98.75833       67.53807786        0.58583692
       98.85802       70.32448084        0.55844359
       98.95772       71.34677594        0.55883178
       99.05741       72.56127697        0.78253426
       99.15710       74.11947107        0.68034711
       99.25680       73.92595197        0.65824301
       99.35649       79.25470060        0.64972318
       99.45618       82.51701357        0.61816511
       99.55588       83.36874384        0.83035508
       99.65557       84.84757212        0.69125729
       99.75526       88.06326427        0.66042041
       99.85496       85.82151488        0.62028263
       99.95465       84.21336853        0.60222188
      100.05434       85.82608703        0.86632825
      100.15404       86.40510001        0.73223261
      100.25373       86.75399745        0.72496596
      100.35342       86.10884731        0.71936275
      100.45312       84.50914344        0.65011503
      100.55281       85.15780924        0.85723322
      100.65250       83.11224762        0.68967336
      100.75220       81.08802953        0.63078560
      100.85189       80.27591588        0.59960769
      100.95158       79.78954072        0.58176814
      101.05128       81.13811022        0.83660096
      101.15097       78.41211698        0.67939938
      101.25066       78.81286521        0.67301398
      101.35036       78.75264769        0.67858186
      101.45005       76.38879591        0.62820839
      101.54974       74.08337942        0.77025110
      101.64944       73.35525913        0.62525464
      101.74913       74.88309437        0.59538513
      101.84882       77.23875895        0.58884386
      101.94852       78.69406068        0.62624104
      102.04821       78.41915820        0.75293370
      102.14791       79.93040870        0.68525142
      102.24760       79.29939764        0.67670377
      102.34729       78.94115594        0.67237664
      102.44699       79.21816735        0.68529861
      102.54668       81.30675921        0.72877705
      102.64637       82.95838048        0.65765147
      102.74607       84.13141900        0.63086591
      102.84576       85.33061547        0.62341012
      102.94545       86.13048432        0.71345105
      103.04515       84.24725735        0.74673384
      103.14484       84.98243290        0.70080342
      103.24453       83.73028224        0.68474216
      103.34423       83.48352475        0.67816897
      103.44392       84.99247955        0.74141377
      103.54361       86.35064611        0.72614547
      103.64331       85.61023741        0.65806221
      103.74300       85.32698740        0.62663306
      103.84269       85.56300597        0.61666172
      103.94239       83.86915539        0.73346941
      104.04208       83.89665991        0.70970527
      104.14177       83.63198803        0.68935850
      104.24147       82.16156331        0.68275146
      104.34116       82.16789053        0.68701746
      104.44085       81.13001425        0.77520318
      104.54055       79.59793690        0.69501994
      104.64024       79.35618450        0.65229491
      104.73993       77.16549241        0.61357825
      104.83963       73.06651190        0.57482289
      104.93932       71.64581901        0.68987794
      105.03901       71.36768644        0.64874189
      105.13871       71.31369700        0.62441761
      105.23840       71.89227338        0.62664798
      105.33809       70.15722489        0.62250799
      105.43779       69.08454847        0.71862172
      105.53748       68.22745290        0.64034810
      105.63717       67.08387240        0.58189941
      105.73687       64.64707313        0.54340460
      105.83656       61.94266236        0.51806954
      105.93626       61.67571095        0.65507671
      106.03595       60.20217784        0.58642890
      106.13564       58.90223373        0.56051436
      106.23534       57.25786366        0.55928096
      106.33503       55.27119206        0.55485269
      106.43472       54.58769393        0.65181681
      106.53442       54.04799926        0.56409093
      106.63411       53.01489005        0.50740887
      106.73380       53.45935994        0.48566896
      106.83350       54.27978725        0.48214381
      106.93319       55.34481706        0.63123007
      107.03288       55.72980199        0.56142984
      107.13258       56.46918334        0.54861887
      107.23227       56.16194884        0.55503530
      107.33196       56.59666972        0.55569183
      107.43166       57.04712328        0.67039186
      107.53135       57.65459029        0.58154594
      107.63104       59.54724449        0.53833127
      107.73074       59.98936784        0.51843436
      107.83043       62.19819339        0.52141895
      107.93012       63.65825403        0.69799350
      108.02982       63.51004195        0.61019804
      108.12951       63.26701915        0.57913771
      108.22920       62.63557061        0.56693869
      108.32890       64.31005197        0.56915474
      108.42859       64.99879556        0.72628996
      108.52828       67.89809643        0.62997994
      108.62798       67.65111321        0.57017391
      108.72767       67.86906115        0.54817379
      108.82736       68.12639394        0.56133826
      108.92706       65.86495744        0.69875870
      109.02675       65.03975954        0.60736868
      109.12644       66.20162234        0.59819164
      109.22614       65.87815205        0.59716463
      109.32583       65.73478728        0.64999922
      109.42552       66.10512725        0.68760018
      109.52522       65.98860054        0.61979101
      109.62491       64.21672973        0.58137919
      109.72461       63.55583374        0.55290080
      109.82430       61.12977758        0.50631615
      109.92399       60.19582375        0.65315134
      110.02369       60.18367501        0.57191059
      110.12338       60.74479846        0.57088218
      110.22307       59.02334009        0.55835699
      110.32277       59.32363761        0.57165145
      110.42246       58.21392503        0.68839891
      110.52215       57.66536135        0.58024053
      110.62185       56.59814764        0.54166806
      110.72154       55.63486780        0.50094780
      110.82123       55.30078826        0.51577443
      110.92093       55.13712797        0.60065343
      111.02062       56.09862087        0.55982695
      111.12031       57.76065799        0.57246581
      111.22001       57.07824785        0.55834741
      111.31970       57.81441287        0.60993420
      111.41939       57.82120090        0.63117829
      111.51909       57.48278663        0.57100535
      111.61878       59.44741520        0.54719797
      111.71847       61.27145240        0.51701977
      111.81817       63.96503558        0.57361659
      111.91786       66.35274794        0.61507767
      112.01755       68.86449596        0.61211560
      112.11725       69.93664293        0.62164926
      112.21694       71.60724597        0.62638578
      112.31663       74.28957464        0.70338022
      112.41633       74.83874006        0.69360773
      112.51602       77.28645991        0.64936174
      112.61571       80.43798511        0.63228719
      112.71541       82.91325820        0.60521574
      112.81510       87.13485696        0.69617752
      112.91479       86.28154960        0.70557872
      113.01449       89.12908028        0.70259073
      113.11418       88.67923907        0.69841927
      113.21387       88.44273519        0.69428623
      113.31357       90.24138795        0.77909965
      113.41326       92.73222096        0.75088435
      113.51296       91.64044490        0.70201818
      113.61265       93.93630583        0.68607940
      113.71234       92.89211276        0.65155530
      113.81204       92.88100915        0.74639988
      113.91173       89.74054347        0.71056063
      114.01142       90.24864154        0.70545343
      114.11112       88.65244816        0.69862514
      114.21081       88.35409826        0.70245734
      114.31050       88.27133885        0.79622996
      114.41020       89.11530021        0.73937644
      114.50989       88.13193637        0.68823184
      114.60958       87.05353696        0.66180297
      114.70928       85.60337930        0.63279862
      114.80897       83.99657666        0.71074651
      114.90866       83.89856722        0.66997524
      115.00836       85.54279327        0.67353642
      115.10805       86.77486909        0.68220870
      115.20774       87.51557966        0.69557044
      115.30744       89.24592718        0.80673808
      115.40713       88.19539987        0.72626636
      115.50682       88.57164512        0.68715677
      115.60652       89.37063665        0.66533373
      115.70621       90.12705913        0.64221719
      115.80590       91.68124362        0.75583176
      115.90560       93.61595790        0.69248051
      116.00529       93.66020393        0.70037771
      116.10498       96.76850183        0.71972554
      116.20468       99.90053789        0.74847039
      116.30437      102.29696563        0.90322998
      116.40406       99.67302076        0.77617278
      116.50376      101.67275772        0.74105347
      116.60345      104.08217306        0.72003021
      116.70314      109.03966334        0.71522483
      116.80284      115.58542069        0.87593537
      116.90253      116.95374082        0.79278246
      117.00222      121.47226077        0.80217607
      117.10192      125.24898978        0.83691027
      117.20161      127.64522684        0.85551023
      117.30131      126.53188255        1.01905552
      117.40100      132.33227402        0.87699735
      117.50069      137.41291417        0.84950407
      117.60039      144.39181628        0.83434758
      117.70008      149.76385632        0.82393941
      117.79977      153.66265608        1.02337878
      117.89947      157.01973969        0.89982538
      117.99916      157.27257257        0.91132716
      118.09885      160.27159180        0.93769480
      118.19855      162.04500620        0.98784162
      118.29824      167.87759001        1.10332545
      118.39793      167.77672893        1.00141602
      118.49763      174.09816782        0.96362241
      118.59732      174.97238404        0.93282625
      118.69701      176.18561850        0.97532397
      118.79671      177.71337685        1.05794896
      118.89640      176.71371996        0.98344159
      118.99609      176.24363195        0.98100506
      119.09579      176.52444946        0.99327629
      119.19548      178.82988482        1.09279799
      119.29517      177.93677827        1.13232768
      119.39487      177.33370397        1.03903973
      119.49456      175.35359138        0.97335299
      119.59425      171.17447701        0.93329749
      119.69395      167.69434104        0.97401297
      119.79364      160.57717107        0.96210124
      119.89333      158.65306379        0.92524673
      119.99303      154.75111301        0.89160928
      120.09272      149.25684126        0.89476986
      120.19241      146.37459947        0.99549863
      120.29211      143.94038757        0.97672079
      120.39180      138.53797129        0.91334856
      120.49149      133.71008037        0.83384809
      120.59119      129.64455219        0.79639468
      120.69088      125.19318206        0.84184202
      120.79057      123.46822743        0.81783610
      120.89027      122.42710713        0.79939096
      120.98996      121.51476509        0.79016401
      121.08966      120.67280192        0.79320320
      121.18935      119.05763636        0.90286369
      121.28904      118.22975183        0.87678790
      121.38874      116.71912034        0.82360375
      121.48843      115.70691805        0.77438728
      121.58812      115.45465657        0.73773307
      121.68782      116.66833137        0.82173689
      121.78751      114.41660686        0.77514627
      121.88720      114.35690673        0.76502825
      121.98690      113.74211669        0.76860539
      122.08659      111.99274465        0.77771374
      122.18628      110.82640402        0.89730563
      122.28598      109.95147664        0.84035428
      122.38567      108.89306027        0.80080867
      122.48536      109.11321371        0.75830540
      122.58506      108.92259548        0.71754423
      122.68475      107.84182080        0.80891416
      122.78444      107.85184454        0.76171853
      122.88414      107.37692692        0.75352696
      122.98383      105.12964424        0.76058595
      123.08352      103.56878211        0.74826423
      123.18322      103.22953521        0.87123206
      123.28291      103.79467640        0.79405801
      123.38260      102.77840985        0.76266163
      123.48230      101.70353312        0.73107498
      123.58199      100.57778787        0.67939330
      123.68168       99.09639693        0.76933304
      123.78138       97.93283676        0.68987206
      123.88107       93.91860775        0.65951221
      123.98076       92.11199211        0.66501466
      124.08046       89.05806431        0.64666962
      124.18015       89.46252504        0.73365150
      124.27984       89.02352666        0.65563974
      124.37954       86.66280848        0.61017735
      124.47923       83.65560175        0.58495908
      124.57893       80.44934522        0.61081788
