        5.04651       60.60210952        1.19748910
        5.14621       58.49686984        1.13344661
        5.24590       58.86136685        1.12073862
        5.34559       57.08154672        1.01192995
        5.44529       56.31594266        1.09333502
        5.54498       55.93604563        0.91652165
        5.64467       54.95334754        0.90034164
        5.74437       56.05535140        0.82099266
        5.84406       55.86711716        0.82941918
        5.94375       56.19452906        0.83077823
        6.04345       52.68162567        0.78114138
        6.14314       54.46013270        0.72741961
        6.24283       54.49782100        0.75169697
        6.34253       54.13794043        0.71454814
        6.44222       53.66501202        0.74903844
        6.54191       53.35613014        0.70751580
        6.64161       52.91727036        0.66744394
        6.74130       53.69686496        0.67514950
        6.84099       53.22551175        0.66725847
        6.94069       54.25699830        0.68395986
        7.04038       53.07686472        0.62431265
        7.14007       52.37370022        0.61880209
        7.23977       52.40779559        0.60818460
        7.33946       52.92128396        0.62056724
        7.43915       53.00819285        0.61298155
        7.53885       53.03239300        0.60181154
        7.63854       53.60633066        0.57835966
        7.73823       53.30536026        0.59882571
        7.83793       53.01417518        0.57787649
        7.93762       52.31255176        0.59873322
        8.03732       53.45649375        0.54290667
        8.13701       53.87494491        0.54260658
        8.23670       53.45380659        0.54806810
        8.33640       53.76700237        0.54985220
        8.43609       52.99751824        0.57064324
        8.53578       53.90786291        0.53615109
        8.63548       53.23717722        0.52662024
        8.73517       53.96910728        0.52018820
        8.83486       52.83786687        0.51585971
        8.93456       53.98437913        0.51885154
        9.03425       53.23009648        0.50006161
        9.13394       54.61823745        0.50761586
        9.23364       53.52769244        0.50976354
        9.33333       53.78363091        0.52140757
        9.43302       54.49172529        0.52508844
        9.53272       53.60551087        0.50312819
        9.63241       55.45181809        0.52635174
        9.73210       54.36130578        0.52000747
        9.83180       54.56004173        0.54285233
        9.93149       54.90106540        0.54068032
       10.03118       53.76172850        0.51470962
       10.13088       54.18841905        0.50440313
       10.23057       54.54672645        0.52998921
       10.33026       55.42177660        0.55229401
       10.42996       55.06512146        0.54293766
       10.52965       55.17092317        0.52632416
       10.62934       55.88787408        0.53107166
       10.72904       57.19539360        0.54531717
       10.82873       55.55293403        0.53456990
       10.92842       56.03608013        0.54593445
       11.02812       56.84444766        0.52392928
       11.12781       56.49551229        0.54102159
       11.22750       57.38460323        0.55077929
       11.32720       57.33194552        0.56532919
       11.42689       56.02472683        0.53933575
       11.52658       58.18691308        0.54329760
       11.62628       57.55659136        0.54615023
       11.72597       57.90015802        0.55944581
       11.82567       58.60951956        0.57858555
       11.92536       59.60607561        0.54612948
       12.02505       59.04844534        0.54604696
       12.12475       61.82635250        0.55850378
       12.22444       64.56156899        0.60546104
       12.32413       70.77267959        0.64424023
       12.42383       74.20080206        0.62644023
       12.52352       81.08888755        0.65149775
       12.62321       89.43027058        0.70444825
       12.72291      100.28006865        0.72699243
       12.82260      116.19019017        0.85261250
       12.92229      124.36029512        0.80189185
       13.02199      145.48088177        0.86304853
       13.12168      174.98745062        0.96712266
       13.22137      212.71361259        1.10697533
       13.32107      244.08236852        1.22938875
       13.42076      281.48264106        1.27766134
       13.52045      317.43043240        1.38027642
       13.62015      336.60758825        1.38148146
       13.71984      334.74682154        1.43581522
       13.81953      313.10702054        1.40832968
       13.91923      283.43010004        1.25397092
       14.01892      229.34461454        1.09026428
       14.11861      178.04039600        0.99516224
       14.21831      142.71525433        0.88747555
       14.31800      114.47970915        0.83337204
       14.41769       90.44029497        0.71078787
       14.51739       75.11313415        0.63049895
       14.61708       66.37398221        0.59338755
       14.71677       58.24479990        0.56419256
       14.81647       55.77331224        0.57813453
       14.91616       53.74835298        0.52174728
       15.01585       52.50770656        0.52487749
       15.11555       52.15926956        0.52916492
       15.21524       51.02582992        0.53932133
       15.31493       51.12752305        0.55288691
       15.41463       50.10242390        0.52983199
       15.51432       49.42187006        0.50985616
       15.61402       49.38908000        0.52259045
       15.71371       49.85820088        0.52150237
       15.81340       49.65739405        0.54140270
       15.91310       50.27088676        0.52935342
       16.01279       49.57290172        0.50325867
       16.11248       49.64756716        0.51716884
       16.21218       50.34249967        0.53527220
       16.31187       51.02534553        0.54027192
       16.41156       49.63382034        0.52280563
       16.51126       50.15764856        0.53449217
       16.61095       51.34789047        0.52155943
       16.71064       52.25978290        0.54289160
       16.81034       54.06937128        0.55405597
       16.91003       54.38850856        0.53969282
       17.00972       57.12756596        0.53124005
       17.10942       59.11811624        0.57138170
       17.20911       63.02964909        0.59558750
       17.30880       66.53063560        0.61758014
       17.40850       70.05302427        0.63394006
       17.50819       73.50319015        0.63089844
       17.60788       75.98311725        0.66164612
       17.70758       75.79681536        0.66353546
       17.80727       75.63202298        0.67097813
       17.90696       73.30200461        0.61736544
       18.00666       69.78296971        0.61257347
       18.10635       64.64317788        0.57297125
       18.20604       61.21388228        0.61130828
       18.30574       58.89400953        0.57124571
       18.40543       57.37195969        0.54972308
       18.50512       55.75412928        0.55886411
       18.60482       55.06885736        0.54664319
       18.70451       54.61860404        0.57525957
       18.80420       53.38492372        0.53416337
       18.90390       51.63102393        0.51954946
       19.00359       50.42332376        0.49991105
       19.10328       50.13747789        0.52737264
       19.20298       49.56068057        0.54059144
       19.30267       49.06986280        0.51651983
       19.40237       48.32134325        0.50669816
       19.50206       48.39913289        0.51986248
       19.60175       47.90693579        0.51136903
       19.70145       46.73441744        0.52950736
       19.80114       47.68106951        0.50735030
       19.90083       46.96502433        0.48644945
       20.00053       47.92059663        0.50017513
       20.10022       48.71335739        0.50811087
       20.19991       48.89186326        0.54423834
       20.29961       50.34484648        0.52340713
       20.39930       51.11841738        0.54341861
       20.49899       51.45231659        0.53574999
       20.59869       53.70529249        0.55757957
       20.69838       53.63537019        0.57775740
       20.79807       54.59091715        0.55604418
       20.89777       55.56050787        0.54836189
       20.99746       58.26206212        0.56738420
       21.09715       57.98653254        0.59619319
       21.19685       59.94246997        0.60320973
       21.29654       59.99892445        0.58871045
       21.39623       59.49667848        0.58622100
       21.49593       57.46037046        0.56766741
       21.59562       56.08200331        0.57418491
       21.69531       53.53739862        0.58326453
       21.79501       52.41355833        0.52783792
       21.89470       49.56989024        0.50152125
       21.99439       47.88602683        0.51367820
       22.09409       47.15786028        0.51095615
       22.19378       46.77859761        0.54040864
       22.29347       47.27887991        0.50603475
       22.39317       46.33531347        0.51385312
       22.49286       47.64637784        0.52077441
       22.59255       46.40644572        0.51988458
       22.69225       46.79835800        0.55020105
       22.79194       46.28875052        0.49139045
       22.89163       46.96000847        0.48532014
       22.99133       47.16127598        0.49986377
       23.09102       46.86790804        0.51748627
       23.19072       47.48042610        0.52214097
       23.29041       47.61494491        0.51638185
       23.39010       48.14700081        0.52474726
       23.48980       47.80620183        0.52475409
       23.58949       47.40050967        0.52949248
       23.68918       47.09132605        0.55494646
       23.78888       45.50282330        0.48602069
       23.88857       46.76809706        0.49928930
       23.98826       45.72360163        0.50461822
       24.08796       45.22825794        0.49205646
       24.18765       45.63553258        0.52964817
       24.28734       47.05366466        0.51217856
       24.38704       46.25581057        0.51623344
       24.48673       46.13526694        0.51370585
       24.58642       46.83227710        0.53476212
       24.68612       45.63374768        0.52706762
       24.78581       45.58608066        0.48560910
       24.88550       47.10025997        0.49353690
       24.98520       46.67940767        0.50946398
       25.08489       47.04131579        0.52167984
       25.18458       47.88970084        0.53749921
       25.28428       47.61220087        0.51652491
       25.38397       48.54227278        0.51909595
       25.48366       50.78116267        0.53431597
       25.58336       53.93013865        0.57423700
       25.68305       59.12244382        0.59020648
       25.78274       67.75901729        0.59719603
       25.88244       80.12122394        0.66710730
       25.98213      104.01053455        0.76922813
       26.08182      132.41482471        0.89467848
       26.18152      159.92835648        1.01126856
       26.28121      187.09380723        1.03886375
       26.38090      201.83712538        1.09046447
       26.48060      200.69736544        1.11712500
       26.58029      182.14489894        1.10704200
       26.67998      161.01383766        0.97997052
       26.77968      129.32570589        0.86365077
       26.87937       99.70736133        0.74409819
       26.97907       82.07756533        0.66771543
       27.07876       74.01037675        0.68190317
       27.17845       73.73946091        0.65046890
       27.27815       76.29351465        0.64641401
       27.37784       81.35561670        0.69410958
       27.47753       86.49577203        0.70574268
       27.57723       87.37551904        0.74316394
       27.67692       86.45446986        0.72145104
       27.77661       81.39412526        0.66759266
       27.87631       72.49716213        0.61868435
       27.97600       64.94300730        0.59803175
       28.07569       59.36927030        0.60462402
       28.17539       54.81376155        0.55575173
       28.27508       51.93117927        0.54091660
       28.37477       51.85262327        0.55336559
       28.47447       52.51665709        0.55261186
       28.57416       51.64311348        0.59236054
       28.67385       53.40848438        0.53610726
       28.77355       55.45988240        0.53663575
       28.87324       57.28296487        0.56008392
       28.97293       58.67854843        0.56832396
       29.07263       59.52842900        0.62406326
       29.17232       59.26389425        0.56821957
       29.27201       57.83444851        0.57155662
       29.37171       55.30995064        0.57474211
       29.47140       53.41665611        0.55812135
       29.57109       51.53542558        0.58113057
       29.67079       49.67225773        0.51923736
       29.77048       49.44884500        0.51925035
       29.87017       49.08139045        0.50713146
       29.96987       49.03871335        0.53150648
       30.06956       49.33007958        0.55000039
       30.16925       48.51979524        0.51351612
       30.26895       49.03825633        0.51827125
       30.36864       50.69327823        0.53570950
       30.46833       51.59772389        0.54602877
       30.56803       55.17605819        0.59682093
       30.66772       56.66213638        0.56295582
       30.76742       60.39073742        0.56991028
       30.86711       63.18915794        0.59486333
       30.96680       65.96650770        0.61159833
       31.06650       64.41330607        0.63352860
       31.16619       63.11433216        0.58950199
       31.26588       62.19888911        0.58160730
       31.36558       59.84866244        0.57775218
       31.46527       60.16338917        0.60277024
       31.56496       62.26631695        0.62328678
       31.66466       66.84400287        0.60440838
       31.76435       73.73567590        0.63487797
       31.86404       79.75355794        0.65223539
       31.96374       87.64514955        0.70051542
       32.06343       90.09364833        0.73527560
       32.16312       87.51869932        0.68075967
       32.26282       79.88594237        0.66544372
       32.36251       73.02827856        0.66095442
       32.46220       68.03328986        0.64886787
       32.56190       62.36670128        0.63168261
       32.66159       57.64894295        0.57628109
       32.76128       54.82107617        0.54909640
       32.86098       54.31919861        0.55473882
       32.96067       52.96786716        0.55452885
       33.06036       53.70861286        0.56865540
       33.16006       54.56920138        0.53988989
       33.25975       54.38094044        0.55644890
       33.35944       55.29645243        0.56424380
       33.45914       56.88028798        0.59419763
       33.55883       59.09876234        0.60732455
       33.65852       61.18867832        0.57645191
       33.75822       66.39241580        0.59993897
       33.85791       73.60200057        0.63498917
       33.95760       83.12977038        0.69583695
       34.05730       90.30409561        0.71898155
       34.15699      101.54014187        0.75158099
       34.25668      114.86036408        0.79815846
       34.35638      137.74758458        0.89970937
       34.45607      175.68583335        1.07613503
       34.55577      220.29365461        1.15558241
       34.65546      291.98136197        1.28875432
       34.75515      378.86184794        1.51380949
       34.85485      447.97371636        1.64854538
       34.95454      470.97385573        1.74848753
       35.05423      448.03712004        1.75817601
       35.15393      389.68368300        1.52782079
       35.25362      298.29096650        1.34059946
       35.35331      220.42897378        1.16976621
       35.45301      158.18259987        1.02493061
       35.55270      120.34785645        0.86584632
       35.65239       93.24702532        0.73319110
       35.75209       82.26397514        0.68256034
       35.85178       77.36128592        0.66054687
       35.95147       73.80903949        0.66002956
       36.05117       68.82543107        0.62372736
       36.15086       64.43470854        0.57986585
       36.25055       60.25695674        0.58544309
       36.35025       55.78378982        0.57388813
       36.44994       54.12774122        0.57644486
       36.54963       52.62351099        0.54547966
       36.64933       52.93577676        0.53896222
       36.74902       51.89682163        0.53912670
       36.84871       51.64273157        0.53390206
       36.94841       52.45196261        0.58197109
       37.04810       52.16219963        0.51170678
       37.14779       51.17358327        0.51713874
       37.24749       51.50207303        0.53325780
       37.34718       51.00902579        0.54419034
       37.44687       49.55500562        0.57603079
       37.54657       49.66673842        0.52648110
       37.64626       49.40458907        0.52305265
       37.74595       48.57671532        0.51046894
       37.84565       49.32063774        0.54431273
       37.94534       49.22186603        0.55395169
       38.04503       49.47100992        0.50196313
       38.14473       49.71916435        0.50817388
       38.24442       49.60593323        0.51686170
       38.34412       51.05449299        0.54834266
       38.44381       50.79416064        0.59137816
       38.54350       51.18720648        0.52923315
       38.64320       51.96949022        0.53171778
       38.74289       53.20786219        0.54516935
       38.84258       55.08065375        0.55620261
       38.94228       58.37174306        0.60090124
       39.04197       60.97518058        0.55403504
       39.14166       65.33185407        0.59701211
       39.24136       70.00602832        0.61682049
       39.34105       70.21519267        0.63929771
       39.44074       71.87796650        0.70573120
       39.54044       72.19594323        0.63244675
       39.64013       70.03118445        0.62076222
       39.73982       66.47399672        0.60687520
       39.83952       62.51310970        0.58414739
       39.93921       59.87701626        0.60591213
       40.03890       56.82799655        0.54004170
       40.13860       55.75533369        0.53413130
       40.23829       55.59985598        0.55224149
       40.33798       56.23993757        0.57278845
       40.43768       56.43112932        0.60033041
       40.53737       56.24140025        0.55622816
       40.63706       57.64324395        0.57508054
       40.73676       60.35343676        0.58778558
       40.83645       60.84943683        0.59517364
       40.93614       63.66512117        0.61928759
       41.03584       67.23978757        0.59929145
       41.13553       74.99619594        0.63442322
       41.23522       85.60751029        0.69542214
       41.33492      104.00028841        0.80465789
       41.43461      122.94822768        0.90548292
       41.53430      145.31035196        0.92492455
       41.63400      171.27101868        1.03003628
       41.73369      191.06708194        1.06730400
       41.83338      199.03146155        1.11972825
       41.93308      201.96378703        1.11840557
       42.03277      202.59721402        1.02384040
       42.13247      212.49022860        1.10336436
       42.23216      253.87969583        1.21519462
       42.33185      328.09544709        1.49834248
       42.43155      416.87249541        1.68434917
       42.53124      519.20399688        1.84523388
       42.63093      601.51800169        2.01150084
       42.73063      649.01377370        2.11213731
       42.83032      626.93203130        2.10672488
       42.93001      563.64661191        1.90681245
       43.02971      435.34568747        1.55588876
       43.12940      307.32376875        1.31032896
       43.22909      209.37516250        1.12115297
       43.32879      148.73224656        0.98696538
       43.42848      108.92587257        0.82140615
       43.52817       84.91142975        0.69155036
       43.62787       72.76717010        0.63700379
       43.72756       66.72751751        0.62391825
       43.82725       63.66873008        0.63611264
       43.92695       59.80197773        0.55870316
       44.02664       59.12055052        0.55280585
       44.12633       57.80893374        0.56689325
       44.22603       57.15879274        0.58666632
       44.32572       56.34302329        0.61380902
       44.42541       55.72203911        0.58273434
       44.52511       57.67149918        0.57708944
       44.62480       58.12192282        0.58757400
       44.72449       59.46178985        0.57606356
       44.82419       62.67033031        0.66397347
       44.92388       66.56084711        0.57104964
       45.02357       72.80185636        0.60270546
       45.12327       79.84818641        0.65081977
       45.22296       92.44952063        0.72009229
       45.32265      111.18667501        0.87603356
       45.42235      129.20272647        0.86209228
       45.52204      165.30752428        0.97067243
       45.62174      210.98913629        1.12441590
       45.72143      260.23263754        1.25823554
       45.82112      294.43566225        1.47287115
       45.92082      314.53746316        1.29646906
       46.02051      305.51737619        1.30320537
       46.12020      266.79693580        1.21440698
       46.21990      217.33496459        1.14283996
       46.31959      172.74599731        1.09253725
       46.41928      131.42810608        0.87445300
       46.51898       99.23472890        0.76026094
       46.61867       76.66635830        0.66259044
       46.71836       65.95284675        0.62938578
       46.81806       61.02790834        0.62737638
       46.91775       57.77076953        0.53183699
       47.01744       56.77242207        0.53972866
       47.11714       58.58511187        0.56097506
       47.21683       61.80370512        0.59344814
       47.31652       65.50074042        0.66687409
       47.41622       74.95614817        0.67327886
       47.51591       87.97772737        0.73222648
       47.61560      102.71496394        0.78630238
       47.71530      127.63443265        0.88943717
       47.81499      153.61418107        1.00440909
       47.91468      186.25616409        0.97253026
       48.01438      211.23555912        1.04023317
       48.11407      224.35791761        1.11446544
       48.21376      215.57213171        1.13893396
       48.31346      194.89379535        1.11780390
       48.41315      164.03196764        0.95117042
       48.51284      131.38701397        0.87504597
       48.61254      100.60835995        0.75888389
       48.71223       80.34619090        0.68829949
       48.81192       68.70046636        0.63383707
       48.91162       58.61591270        0.52402788
       49.01131       54.84698406        0.52439343
       49.11100       53.44866451        0.53621799
       49.21070       51.99629711        0.55513650
       49.31039       50.61479848        0.56356543
       49.41009       49.60189788        0.52694841
       49.50978       49.46087821        0.53707422
       49.60947       48.48994091        0.53557897
       49.70917       48.48334299        0.55539979
       49.80886       47.97432730        0.53764899
       49.90855       49.89554880        0.49964097
       50.00825       49.20154133        0.50657252
       50.10794       49.55842048        0.52000914
       50.20763       51.04435081        0.55151621
       50.30733       51.41796903        0.57985463
       50.40702       51.08185460        0.54195634
       50.50671       54.30067301        0.56072470
       50.60641       55.49485677        0.56777743
       50.70610       54.94139564        0.58124565
       50.80579       55.71574114        0.57768077
       50.90549       55.01456925        0.51747757
       51.00518       56.12166964        0.52739350
       51.10487       55.56477451        0.54239833
       51.20457       55.04502927        0.57467292
       51.30426       55.40774457        0.57360009
       51.40395       56.75011278        0.55664500
       51.50365       58.33864620        0.57098496
       51.60334       59.46604196        0.58797539
       51.70303       58.90484565        0.62138323
       51.80273       60.80546823        0.57928930
       51.90242       60.34930563        0.53915909
       52.00211       61.19553210        0.54557339
       52.10181       63.48645995        0.57350663
       52.20150       63.36890642        0.63098944
       52.30119       62.91251345        0.60559089
       52.40089       62.82490041        0.59568392
       52.50058       61.67114164        0.60121848
       52.60027       59.32042950        0.59745947
       52.69997       58.26354057        0.64878424
       52.79966       58.10629437        0.54470170
       52.89935       58.06723761        0.52539180
       52.99905       63.74968029        0.56001876
       53.09874       74.37043214        0.62545298
       53.19844       86.26273246        0.77283709
       53.29813      103.17106294        0.75314667
       53.39782      123.66933850        0.85581958
       53.49752      145.18647878        0.93471506
       53.59721      161.36781445        0.98720172
       53.69690      169.55153799        1.11175015
       53.79660      177.14226298        0.95306669
       53.89629      170.26597502        0.92325132
       53.99598      157.10152649        0.90657811
       54.09568      135.09392783        0.87476580
       54.19537      119.77121970        0.89609685
       54.29506      107.58632048        0.77873029
       54.39476       95.14800971        0.73653585
       54.49445       88.49776236        0.71009238
       54.59414       84.60750857        0.70445340
       54.69384       82.70912558        0.74281325
       54.79353       80.39606797        0.62778136
       54.89322       78.06928636        0.61616835
       54.99292       74.12629085        0.61758336
       55.09261       70.34792240        0.62527885
       55.19230       67.56659150        0.65777503
       55.29200       62.45888920        0.58812232
       55.39169       60.91804181        0.59916316
       55.49138       57.99374670        0.58215256
       55.59108       55.74119269        0.58881482
       55.69077       55.77200490        0.60445458
       55.79046       55.39190949        0.52662461
       55.89016       53.68776899        0.51706896
       55.98985       53.77104622        0.52079440
       56.08954       56.81691813        0.55327339
       56.18924       60.03147448        0.61408655
       56.28893       65.25177442        0.58645642
       56.38862       73.84077538        0.64621424
       56.48832       84.79963689        0.70566550
       56.58801       95.94279313        0.77368441
       56.68770      103.95525890        0.83226087
       56.78740      111.22595177        0.73764427
       56.88709      114.54678365        0.75647568
       56.98679      113.41538672        0.75330373
       57.08648      103.29318611        0.76084765
       57.18617       94.38004418        0.75199011
       57.28587       85.98986873        0.66975524
       57.38556       74.98056186        0.66455976
       57.48525       67.41033184        0.64142699
       57.58495       62.84062741        0.63302103
       57.68464       57.21877991        0.60872910
       57.78433       54.66931639        0.52029165
       57.88403       53.12494255        0.51873051
       57.98372       53.16568184        0.52719638
       58.08341       52.09609100        0.56415393
       58.18311       52.47961211        0.57925136
       58.28280       52.23641830        0.54430187
       58.38249       52.26635793        0.56891016
       58.48219       52.22310277        0.58095000
       58.58188       51.36985216        0.58239962
       58.68157       51.37025137        0.57070434
       58.78127       52.42352112        0.50438048
       58.88096       52.87440869        0.49910998
       58.98065       52.71441019        0.51731558
       59.08035       56.10992311        0.56983773
       59.18004       57.72961043        0.58649343
       59.27973       59.12231844        0.56011496
       59.37943       62.54833456        0.59545244
       59.47912       67.52977428        0.64461326
       59.57881       71.72085076        0.69641233
       59.67851       76.13838937        0.66945125
       59.77820       82.71921268        0.64214729
       59.87789       89.63673509        0.66681968
       59.97759       95.73957996        0.72159521
       60.07728      100.93893844        0.80303247
       60.17697      103.93258898        0.77662672
       60.27667      106.03546952        0.76293175
       60.37636      105.83009285        0.77695005
       60.47605      102.60164479        0.79765592
       60.57575      100.07020894        0.86299519
       60.67544       93.01015096        0.71396809
       60.77514       86.81515787        0.65511123
       60.87483       78.74916110        0.61102843
       60.97452       71.81577790        0.61402226
       61.07422       67.20421724        0.66675246
       61.17391       66.10019813        0.57269495
       61.27360       64.52587771        0.58576746
       61.37330       65.89365613        0.61404178
       61.47299       67.04163002        0.64671570
       61.57268       67.42282259        0.73756702
       61.67238       69.32184635        0.60974022
       61.77207       69.96063371        0.59663767
       61.87176       70.49138190        0.59227809
       61.97146       69.70586675        0.61139272
       62.07115       68.34435648        0.68548651
       62.17084       66.69196017        0.59309734
       62.27054       63.08749671        0.60109587
       62.37023       63.00585936        0.62462871
       62.46992       60.67685498        0.63372901
       62.56962       60.27792383        0.70937967
       62.66931       59.29361131        0.56668856
       62.76900       58.83319553        0.55013942
       62.86870       62.24898176        0.55384225
       62.96839       67.06997992        0.59369054
       63.06808       72.33882441        0.68673524
       63.16778       83.63274896        0.65669690
       63.26747       98.48913666        0.73929158
       63.36716      116.77049213        0.83794732
       63.46686      138.09144259        0.94191082
       63.56655      149.52718414        1.04321941
       63.66624      173.73350282        0.95957013
       63.76594      195.13538323        0.99124613
       63.86563      208.96092760        1.02480354
       63.96532      206.92865063        1.06667969
       64.06502      198.79358326        1.11851202
       64.16471      181.85911854        0.98679913
       64.26440      155.11972868        0.94462564
       64.36410      131.49944748        0.88392696
       64.46379      112.29983325        0.86121929
       64.56349       96.87463331        0.81211130
       64.66318       80.71037249        0.64711843
       64.76287       71.12423700        0.59908979
       64.86257       64.02151020        0.56689336
       64.96226       59.17127402        0.57042338
       65.06195       56.04742581        0.59999834
       65.16165       54.68917970        0.53453037
       65.26134       53.27296732        0.53978438
       65.36103       54.20717421        0.56826324
       65.46073       53.58852735        0.58351248
       65.56042       53.97008644        0.61164935
       65.66011       54.65369713        0.53676315
       65.75981       57.09663834        0.54336955
       65.85950       57.43448121        0.54152614
       65.95919       59.97493760        0.57951509
       66.05889       64.07264020        0.61999022
       66.15858       70.33129546        0.61833252
       66.25827       78.98531855        0.67863438
       66.35797       91.48203329        0.76237782
       66.45766      106.44754790        0.87590834
       66.55735      121.36788326        0.93724752
       66.65705      137.35333801        0.88664950
       66.75674      152.28256201        0.91184550
       66.85643      165.45145313        0.94154266
       66.95613      169.79723795        0.99232859
       67.05582      171.46548365        1.00488802
       67.15551      166.69487041        0.94211938
       67.25521      154.56260392        0.95035425
       67.35490      141.05596390        0.95375756
       67.45459      124.18741530        0.94133325
       67.55429      110.42640940        0.84869019
       67.65398       92.80033733        0.69546775
       67.75367       79.82191575        0.63843406
       67.85337       74.28117360        0.62293319
       67.95306       74.35401171        0.66647139
       68.05275       77.72425436        0.64559421
       68.15245       86.20604131        0.67500640
       68.25214       96.57933397        0.75960854
       68.35184      107.41456873        0.83633856
       68.45153      113.95205568        0.94926226
       68.55122      120.28947771        0.84101206
       68.65092      127.29181387        0.80725169
       68.75061      130.64995234        0.82666763
       68.85030      131.20981256        0.84443642
       68.95000      126.42748960        0.93902744
       69.04969      117.48914034        0.76335824
       69.14938      102.68221045        0.73205919
       69.24908       90.43996584        0.73227824
       69.34877       78.46018777        0.70407710
       69.44846       71.98648053        0.78147291
       69.54816       64.60687475        0.57654633
       69.64785       59.12162959        0.54329956
       69.74754       54.27056497        0.52535708
       69.84724       52.31484823        0.52909192
       69.94693       51.65880490        0.59329795
       70.04662       48.42279200        0.47210372
       70.14632       46.81725470        0.48258208
       70.24601       46.65684603        0.51581609
       70.34570       47.82815311        0.55275406
       70.44540       48.16089591        0.65357427
       70.54509       48.48640992        0.51332976
       70.64478       49.41356492        0.51756083
       70.74448       49.51010682        0.52628645
       70.84417       49.49674636        0.54604387
       70.94386       49.57699191        0.59989712
       71.04356       51.11733863        0.50420085
       71.14325       51.56601422        0.52628933
       71.24294       53.23342937        0.56278560
       71.34264       55.57130399        0.60995649
       71.44233       53.97798604        0.67063172
       71.54202       55.68743416        0.55472053
       71.64172       54.59385497        0.53417683
       71.74141       53.97800747        0.52146112
       71.84110       52.96793107        0.53462626
       71.94080       52.27350455        0.57867457
       72.04049       52.58297306        0.49126494
       72.14019       52.29551998        0.51042466
       72.23988       52.97893028        0.53760508
       72.33957       51.43030831        0.59150744
       72.43927       53.65144213        0.66529935
       72.53896       52.35162351        0.52680621
       72.63865       53.27514265        0.51953442
       72.73835       56.19733712        0.52212180
       72.83804       58.49419560        0.56271948
       72.93773       60.92070211        0.61025979
       73.03743       64.14841269        0.54386668
       73.13712       68.07453761        0.59124022
       73.23681       68.68757533        0.62400782
       73.33651       69.04839934        0.68847251
       73.43620       67.50504994        0.73713594
       73.53589       69.48699860        0.60351231
       73.63559       69.71400445        0.59502818
       73.73528       67.72615505        0.58361841
       73.83497       65.88763999        0.61008197
       73.93467       64.39521966        0.63493693
       74.03436       61.91733823        0.55076408
       74.13405       59.86521224        0.56438445
       74.23375       57.56437621        0.57624979
       74.33344       56.50826498        0.62841067
       74.43313       55.73965465        0.64754136
       74.53283       55.04858098        0.54668963
       74.63252       55.43528450        0.54466643
       74.73221       57.08153187        0.55014631
       74.83191       60.16952818        0.59948459
       74.93160       62.61510406        0.61868883
       75.03129       64.40138110        0.55798014
       75.13099       72.94128649        0.61596611
       75.23068       83.86999477        0.69021043
       75.33037       95.40092715        0.81071198
       75.43007      106.95437299        0.87244891
       75.52976      122.46222238        0.81294604
       75.62945      140.96282115        0.87407374
       75.72915      155.83914676        0.91760543
       75.82884      161.58935943        1.00691470
       75.92854      168.10745837        0.96511437
       76.02823      172.34651254        0.91708757
       76.12792      172.48095370        0.95890441
       76.22762      170.62084976        1.00590025
       76.32731      160.53279860        1.10009347
       76.42700      153.93108154        1.01559536
       76.52670      140.04683857        0.89161124
       76.62639      121.73583564        0.81826872
       76.72608      106.64734521        0.75128527
       76.82578       98.79046132        0.83210203
       76.92547       94.93697923        0.65295043
       77.02516       97.54475255        0.68629440
       77.12486      106.75851516        0.75540152
       77.22455      117.26967442        0.84449017
       77.32424      130.70591717        1.09777047
       77.42394      140.59699691        0.91059689
       77.52363      150.32284538        0.91133305
       77.62332      159.55870235        0.93603652
       77.72302      169.88205026        0.96966599
       77.82271      176.03238182        1.15873922
       77.92240      178.96957751        0.89509349
       78.02210      176.67140476        0.95925275
       78.12179      168.70114534        0.99983941
       78.22148      155.88925037        1.01420677
       78.32118      145.14969916        1.13356851
       78.42087      127.52693679        0.83378280
       78.52056      110.58815525        0.79954709
       78.62026       95.11724587        0.73379716
       78.71995       82.07662831        0.68243947
       78.81964       74.46913774        0.72517705
       78.91934       67.79902054        0.53556923
       79.01903       61.50263524        0.55866404
       79.11872       58.94349890        0.56895321
       79.21842       56.93329067        0.59630989
       79.31811       56.60527473        0.66972649
       79.41780       55.65348403        0.53861149
       79.51750       56.03972910        0.54922093
       79.61719       57.58798103        0.55854435
       79.71689       58.76265812        0.58590492
       79.81658       59.49863932        0.62504294
       79.91627       62.25002513        0.54218808
       80.01597       61.31891173        0.55301775
       80.11566       62.00133790        0.58138094
       80.21535       62.41391926        0.62357747
       80.31505       64.34950304        0.75294223
       80.41474       65.42047603        0.58347520
       80.51443       67.52603157        0.59040810
       80.61413       68.62882175        0.61506223
       80.71382       70.81334874        0.64654149
       80.81351       72.43888088        0.73498524
       80.91321       74.93994252        0.55148026
       81.01290       82.41002094        0.62502592
       81.11259       94.59085767        0.72412737
       81.21229      107.06548823        0.83487781
       81.31198      118.28380988        0.98053331
       81.41167      138.01117267        0.83180278
       81.51137      166.73231732        0.94476177
       81.61106      189.17507647        1.05441591
       81.71075      211.15983927        1.15687362
       81.81045      225.50168754        1.26928323
       81.91014      258.82140870        1.05099448
       82.00983      296.49412751        1.20933507
       82.10953      322.09169428        1.41556542
       82.20922      347.37456058        1.64127914
       82.30891      358.29737989        1.75071678
       82.40861      373.72939045        1.45749162
       82.50830      368.93769908        1.44329332
       82.60799      367.52946888        1.55142370
       82.70769      354.35316393        1.65440918
       82.80738      347.84167628        1.56454489
       82.90707      329.09580061        1.23217363
       83.00677      303.77475435        1.25647822
       83.10646      279.61459035        1.41318579
       83.20615      258.37266946        1.50717939
       83.30585      235.37427626        1.35798671
       83.40554      202.20484015        1.04107380
       83.50524      169.40774637        0.92507502
       83.60493      139.36816869        0.92000440
       83.70462      121.39205389        0.96551651
       83.80432      107.76973069        0.79338536
       83.90401       89.81046959        0.60588184
       84.00370       76.90788364        0.58364917
       84.10340       70.36488881        0.66649234
       84.20309       67.78360698        0.79389112
       84.30278       65.87686511        0.63634553
       84.40248       62.86190985        0.54836123
       84.50217       62.18677030        0.53502069
       84.60186       61.57725441        0.60194461
       84.70156       62.54837916        0.79401871
       84.80125       61.44042891        0.54778701
       84.90094       62.54173457        0.49657222
       85.00064       62.13990161        0.50993594
       85.10033       63.12774841        0.60837851
       85.20002       62.93934794        1.04183851
       85.29972       63.72887462        0.55308807
       85.39941       65.04570304        0.56982467
       85.49910       65.08932983        0.55432963
       85.59880       65.68482798        0.62623309
       85.69849       69.05967302        1.15349870
       85.79818       65.51708203        0.52937738
       85.89788       64.71733030        0.51349445
       85.99757       66.51989979        0.53508083
       86.09726       65.52686873        0.60964437
       86.19696       67.87007254        1.19214869
       86.29665       66.69434671        0.55913694
       86.39634       66.64594632        0.56862955
       86.49604       65.41752532        0.55472708
       86.59573       62.55706171        0.57770174
       86.69542       63.34451944        1.21560118
       86.79512       58.85785742        0.48603101
       86.89481       58.45595432        0.47750996
       86.99451       56.95214448        0.48842433
       87.09420       56.38667189        0.54196177
       87.19389       55.31724150        1.27131992
       87.29359       54.32418723        0.51049818
       87.39328       52.53058209        0.50862400
       87.49297       49.63631149        0.47972182
       87.59267       49.04476060        0.48618166
       87.69236       49.97207487        1.46872357
       87.79205       50.38950606        0.45946557
       87.89175       50.87115978        0.45797785
       87.99144       51.34214073        0.47946252
       88.09113       51.19349543        0.50885970
       88.19083       53.19986376        2.74596447
       88.29052       50.73627782        0.50973397
       88.39021       49.69267990        0.50773484
       88.48991       48.39197084        0.48075354
       88.58960       50.21535378        0.47440859
       88.68929       53.31693097        3.78892151
       88.78899       50.70333868        0.46017421
       88.88868       50.04036409        0.44711985
       88.98837       49.44239928        0.46221107
       89.08807       49.18800405        0.47219049
       89.18776       50.44400483        3.89159677
       89.28745       48.95759288        0.47860643
       89.38715       49.64695197        0.48697300
       89.48684       51.81218522        0.48701726
       89.58653       54.37846169        0.48901324
       89.68623       63.69914778        4.29758399
       89.78592       57.10582212        0.48716307
       89.88561       61.49878528        0.49600507
       89.98531       66.84559585        0.53073660
       90.08500       74.20364378        0.58068310
       90.18469       73.44419458        4.81747870
       90.28439       82.22059026        0.62512120
       90.38408       87.68329740        0.65699089
       90.48377       95.23088517        0.67267912
       90.58347      101.42383236        0.68400077
       90.68316      104.51760764        5.41151694
       90.78286      102.78143008        0.65925934
       90.88255      104.46866544        0.64690871
       90.98224      105.96841262        0.67426912
       91.08194      104.39367356        0.69101121
       91.18163      108.39934916        5.62269422
       91.28132      103.06497471        0.70676064
       91.38102       99.94387663        0.71406688
       91.48071       93.47619226        0.67288643
       91.58040       86.72567650        0.62610480
       91.68010       75.62241119        4.41466654
       91.77979       77.88770051        0.56872807
       91.87948       70.69001909        0.53278677
       91.97918       66.74342086        0.53721907
       92.07887       62.22685423        0.53992506
       92.17856       64.63115633        4.18555865
       92.27826       61.28906579        0.55332562
       92.37795       62.86709710        0.57385448
       92.47764       62.44298102        0.54287987
       92.57734       68.00128139        0.55011734
       92.67703       75.93500892        3.77868356
       92.77672       77.02578138        0.56516578
       92.87642       84.71224780        0.58214451
       92.97611       92.51218993        0.63609349
       93.07580      100.19685622        0.75652856
       93.17550       98.92979741        1.41324290
       93.27519      100.88203803        0.69977118
       93.37488      104.75170570        0.69360811
       93.47458      107.35297148        0.71020212
       93.57427      109.94381603        0.83129755
       93.67396      109.22663151        1.11962103
       93.77366      112.41408222        0.70401441
       93.87335      110.71825988        0.66718744
       93.97304      105.42709892        0.67786718
       94.07274       97.16882970        0.84371202
       94.17243       96.28612636        0.95816503
       94.27212       92.46523223        0.69889652
       94.37182       86.92402674        0.65979210
       94.47151       79.13368304        0.60208251
       94.57121       73.39095321        0.76447579
       94.67090       72.60576422        0.76907743
       94.77059       69.14127694        0.58307261
       94.87029       63.83918038        0.50900988
       94.96998       61.29436597        0.50485975
       95.06967       61.64177656        0.58367867
       95.16937       60.98718464        0.79465680
       95.26906       59.68821195        0.60718406
       95.36875       60.64852907        0.55546518
       95.46845       59.59517852        0.52907458
       95.56814       58.79398988        0.60461295
       95.66783       57.57940928        0.67206115
       95.76753       57.12860026        0.55314641
       95.86722       55.45565920        0.46344163
       95.96691       54.71894626        0.47744124
       96.06661       53.76039716        0.60613070
       96.16630       52.65582445        0.63957924
       96.26599       53.37513219        0.57836587
       96.36569       52.34826907        0.51384792
       96.46538       50.98946330        0.48931475
       96.56507       47.64443083        0.58345692
       96.66477       47.81824709        0.56959037
       96.76446       48.00102704        0.50998451
       96.86415       47.95654234        0.44153747
       96.96385       48.65736253        0.45941527
       97.06354       49.53541557        0.62689929
       97.16323       50.26172958        0.60386955
       97.26293       50.25497021        0.56729643
       97.36262       50.44332583        0.52633533
       97.46231       49.66074229        0.48038314
       97.56201       51.54368310        0.62284626
       97.66170       52.91209980        0.56694454
       97.76139       53.42251594        0.51758652
       97.86109       54.58319716        0.47317932
       97.96078       53.68423006        0.47944259
       98.06047       54.78511548        0.67285863
       98.16017       54.24172519        0.59511651
       98.25986       54.48118884        0.56971914
       98.35956       53.72925309        0.53407173
       98.45925       54.86592413        0.50384524
       98.55894       57.56769004        0.67354743
       98.65864       58.46617475        0.58249504
       98.75833       60.74450094        0.55498488
       98.85802       63.56226594        0.53033930
       98.95772       67.76497423        0.54433142
       99.05741       67.91210895        0.75650436
       99.15710       70.80894735        0.66465433
       99.25680       74.05487068        0.65888473
       99.35649       78.30802145        0.64577822
       99.45618       82.42866407        0.61787464
       99.55588       83.71682263        0.83220366
       99.65557       87.52380826        0.70245347
       99.75526       88.77473457        0.66321720
       99.85496       88.88254206        0.63163004
       99.95465       89.94762748        0.62305018
      100.05434       91.40678126        0.89497831
      100.15404       91.29451875        0.75335680
      100.25373       91.42894216        0.74489954
      100.35342       91.76887016        0.74340947
      100.45312       90.56055233        0.67374196
      100.55281       87.21707094        0.86791258
      100.65250       85.72108527        0.70078425
      100.75220       82.20977565        0.63530743
      100.85189       77.51099571        0.58895868
      100.95158       74.89415019        0.56320978
      101.05128       72.26439072        0.78838784
      101.15097       72.91424264        0.65458159
      101.25066       73.08719504        0.64752006
      101.35036       73.13530596        0.65335370
      101.45005       72.56284527        0.61192053
      101.54974       72.84382118        0.76367879
      101.64944       75.97641026        0.63666641
      101.74913       80.29418914        0.61714564
      101.84882       82.69124328        0.60989421
      101.94852       86.16855860        0.65620221
      102.04821       88.74770071        0.80247135
      102.14791       89.36476464        0.72579749
      102.24760       91.59142507        0.72885680
      102.34729       90.96761919        0.72332889
      102.44699       89.56009025        0.73001338
      102.54668       93.43184659        0.78291916
      102.64637       94.19711614        0.70219249
      102.74607       94.39241065        0.66946092
      102.84576       96.28741315        0.66352340
      102.94545       96.19304770        0.75533749
      103.04515       95.09255398        0.79488319
      103.14484       93.59674522        0.73661096
      103.24453       92.35496841        0.72026639
      103.34423       89.92323742        0.70467402
      103.44392       89.04554535        0.75947492
      103.54361       87.48064783        0.73108191
      103.64331       86.30274722        0.66085025
      103.74300       84.85405362        0.62489378
      103.84269       82.67113377        0.60589918
      103.94239       80.78706960        0.71954331
      104.04208       80.74899136        0.69594432
      104.14177       79.91357575        0.67348330
      104.24147       79.70450043        0.67223546
      104.34116       81.02198687        0.68213092
      104.44085       80.17158381        0.77054599
      104.54055       81.37697072        0.70301574
      104.64024       79.68256560        0.65372449
      104.73993       78.43384518        0.61878541
      104.83963       74.83375050        0.58195720
      104.93932       73.25430966        0.69782906
      105.03901       70.45365832        0.64452486
      105.13871       70.44958540        0.62058088
      105.23840       68.29867122        0.61045641
      105.33809       65.51111498        0.60110885
      105.43779       62.34395334        0.68192491
      105.53748       62.49712244        0.61231066
      105.63717       58.27719286        0.54157921
      105.73687       56.82678877        0.50883031
      105.83656       54.86664329        0.48702404
      105.93626       53.89012152        0.61156024
      106.03595       53.28646028        0.55110273
      106.13564       52.00939164        0.52611189
      106.23534       52.45084799        0.53488706
      106.33503       50.00536394        0.52732105
      106.43472       49.18907859        0.61821701
      106.53442       47.54836890        0.52853331
      106.63411       47.89349560        0.48188848
      106.73380       47.57220283        0.45771642
      106.83350       48.91191602        0.45729407
      106.93319       49.28638621        0.59510203
      107.03288       50.23943738        0.53259340
      107.13258       50.65331140        0.51911803
      107.23227       50.52139648        0.52595377
      107.33196       52.16968287        0.53315025
      107.43166       52.89440067        0.64511830
      107.53135       54.19393231        0.56353030
      107.63104       56.16043590        0.52253402
      107.73074       58.43340098        0.51157060
      107.83043       60.90338346        0.51588949
      107.93012       63.35387223        0.69634275
      108.02982       63.95077412        0.61240810
      108.12951       66.48128960        0.59404512
      108.22920       66.08886584        0.58275268
      108.32890       68.14410724        0.58631095
      108.42859       70.95325421        0.75967050
      108.52828       71.26541791        0.64583997
      108.62798       72.32156303        0.59005017
      108.72767       73.67193664        0.57174620
      108.82736       75.48601063        0.59167944
      108.92706       74.31418624        0.74336852
      109.02675       73.45794283        0.64647012
      109.12644       73.22961235        0.62995751
      109.22614       73.25002995        0.63054334
      109.32583       74.43069916        0.69275236
      109.42552       72.84161585        0.72268371
      109.52522       71.29236047        0.64485955
      109.62491       70.06270868        0.60792860
      109.72461       67.15238917        0.56872909
      109.82430       64.35566890        0.51983608
      109.92399       62.03760506        0.66333348
      110.02369       60.46008620        0.57329652
      110.12338       59.56797353        0.56525607
      110.22307       56.59589333        0.54656934
      110.32277       55.88049984        0.55452849
      110.42246       55.57621579        0.67236963
      110.52215       54.15519582        0.56200703
      110.62185       54.51836642        0.53147440
      110.72154       52.15702436        0.48478453
      110.82123       52.55807706        0.50262336
      110.92093       52.50015242        0.58589384
      111.02062       53.79610754        0.54804364
      111.12031       53.83920653        0.55236094
      111.22001       54.11542070        0.54342802
      111.31970       55.63808260        0.59816720
      111.41939       55.83788776        0.62009626
      111.51909       56.26798575        0.56486663
      111.61878       58.04884383        0.54063599
      111.71847       59.43493188        0.50909197
      111.81817       62.39340097        0.56641794
      111.91786       65.61342001        0.61161293
      112.01755       67.19763862        0.60453724
      112.11725       69.82077638        0.62117208
      112.21694       73.21576051        0.63360898
      112.31663       72.73104529        0.69583248
      112.41633       75.62848146        0.69740912
      112.51602       78.76322679        0.65575592
      112.61571       83.02062753        0.64269456
      112.71541       84.51183275        0.61123929
      112.81510       87.59981242        0.69814444
      112.91479       87.82996514        0.71212828
      113.01449       90.28672159        0.70733606
      113.11418       90.53144908        0.70595630
      113.21387       90.13359486        0.70115119
      113.31357       92.43712079        0.78888124
      113.41326       92.93993433        0.75181209
      113.51296       94.00440456        0.71136020
      113.61265       94.88726385        0.68971108
      113.71234       92.92149499        0.65171408
      113.81204       92.21793524        0.74370631
      113.91173       90.73104620        0.71465008
      114.01142       87.98009883        0.69631603
      114.11112       86.72050308        0.69079771
      114.21081       85.76476901        0.69183611
      114.31050       85.40915003        0.78289349
      114.41020       81.97088395        0.70830758
      114.50989       80.79430600        0.65818277
      114.60958       78.17082899        0.62622485
      114.70928       76.49506890        0.59729936
      114.80897       74.22438036        0.66705628
      114.90866       71.83421292        0.61870100
      115.00836       70.21208628        0.60864620
      115.10805       68.81263060        0.60568564
      115.20774       70.00593136        0.62028749
      115.30744       71.06736106        0.71771379
      115.40713       69.73674743        0.64381365
      115.50682       71.65507772        0.61631680
      115.60652       69.54729667        0.58497450
      115.70621       70.63311028        0.56668045
      115.80590       73.61132855        0.67521844
      115.90560       74.20618057        0.61452618
      116.00529       75.86823437        0.62848296
      116.10498       80.64224914        0.65526311
      116.20468       84.39024495        0.68614912
      116.30437       86.74222458        0.82958622
      116.40406       88.77921259        0.73122450
      116.50376       95.40796236        0.71714940
      116.60345      101.46683006        0.71066621
      116.70314      112.56751079        0.72719732
      116.80284      119.44893146        0.89110965
      116.90253      125.84206101        0.82366169
      117.00222      135.42110937        0.84905013
      117.10192      142.13961510        0.89417423
      117.20161      150.74668811        0.93340849
      117.30131      151.87351349        1.12131531
      117.40100      157.52172942        0.96096983
      117.50069      164.95584808        0.93514136
      117.60039      173.90280703        0.92025535
      117.70008      179.72526417        0.90720257
      117.79977      185.30379197        1.12984931
      117.89947      188.33513091        0.99071072
      117.99916      192.13208286        1.01321728
      118.09885      195.04446751        1.04050963
      118.19855      194.68551513        1.08874896
      118.29824      200.80536136        1.21339535
      118.39793      199.97862463        1.09924855
      118.49763      201.96238795        1.04276140
      118.59732      202.58783280        1.00842634
      118.69701      198.29883455        1.03860413
      118.79671      194.71664403        1.11061858
      118.89640      191.20896597        1.02552544
      118.99609      184.12533227        1.00409351
      119.09579      179.21300935        1.00133775
      119.19548      176.03757698        1.08381404
      119.29517      172.33822255        1.11342069
      119.39487      167.44703939        1.00807723
      119.49456      159.19728088        0.92500430
      119.59425      152.10016092        0.87702959
      119.69395      145.49090710        0.90394570
      119.79364      138.93975714        0.89176139
      119.89333      134.40357051        0.84820905
      119.99303      131.05964565        0.81732546
      120.09272      129.29304377        0.83005209
      120.19241      125.55481732        0.91882698
      120.29211      125.19706590        0.90810675
      120.39180      123.45024917        0.86005353
      120.49149      120.87319151        0.79115441
      120.59119      119.28927626        0.76264943
      120.69088      118.24270751        0.81724154
      120.79057      117.28630578        0.79632747
      120.89027      115.79412775        0.77662196
      120.98996      116.41927750        0.77281295
      121.08966      118.24869956        0.78493558
      121.18935      117.67197123        0.89745487
      121.28904      116.38764127        0.86972802
      121.38874      118.15776705        0.82893252
      121.48843      115.26877222        0.77292394
      121.58812      118.46767464        0.74773944
      121.68782      119.55068948        0.83229912
      121.78751      120.18704195        0.79529460
      121.88720      122.47530182        0.79287271
      121.98690      121.67041435        0.79607566
      122.08659      121.11214816        0.81007613
      122.18628      119.22346741        0.93208147
      122.28598      118.95646877        0.87549794
      122.38567      117.60164234        0.83351415
      122.48536      116.31957250        0.78396865
      122.58506      115.43934358        0.73957565
      122.68475      113.07125412        0.82909847
      122.78444      110.44846954        0.77123604
      122.88414      108.06539627        0.75608799
      122.98383      104.68672118        0.75898559
      123.08352      101.77384669        0.74158427
      123.18322       99.20459297        0.85356040
      123.28291       97.99162508        0.77083927
      123.38260       97.29382305        0.74139858
      123.48230       95.97861156        0.70956357
      123.58199       94.61626306        0.65833291
      123.68168       93.10807892        0.74502250
      123.78138       92.89106472        0.67135438
      123.88107       90.29799610        0.64632629
      123.98076       88.15026868        0.65016736
      124.08046       86.43950635        0.63685710
      124.18015       85.56903508        0.71708826
      124.27984       84.80004204        0.63948643
      124.37954       82.28302553        0.59415994
      124.47923       79.67080379        0.57051268
      124.57893       73.61286553        0.58364869
