        5.04651       52.10623563        1.10895416
        5.14621       53.47147360        1.08292412
        5.24590       51.72072662        1.04945627
        5.34559       53.37305287        0.97805859
        5.44529       50.97536551        1.03943172
        5.54498       50.38543104        0.86918389
        5.64467       50.74614179        0.86471959
        5.74437       49.55513286        0.77119782
        5.84406       50.45985015        0.78766592
        5.94375       49.90318568        0.78218365
        6.04345       50.65089646        0.76581015
        6.14314       49.01010619        0.68953804
        6.24283       46.93163256        0.69678071
        6.34253       48.53583543        0.67603646
        6.44222       49.10586776        0.71608084
        6.54191       48.25750141        0.67239200
        6.64161       48.00814280        0.63530741
        6.74130       49.27531807        0.64637933
        6.84099       47.21238456        0.62789821
        6.94069       48.40319469        0.64547437
        7.04038       48.64160593        0.59730977
        7.14007       46.81238580        0.58457016
        7.23977       47.66413942        0.57963711
        7.33946       47.58656937        0.58802276
        7.43915       47.31687705        0.57867578
        7.53885       47.14128568        0.56692669
        7.63854       47.48410467        0.54385484
        7.73823       47.58954704        0.56535383
        7.83793       46.07092687        0.53815744
        7.93762       46.54410105        0.56429758
        8.03732       46.41211166        0.50534723
        8.13701       46.08512626        0.50126236
        8.23670       47.15699602        0.51430885
        8.33640       46.15334882        0.50885731
        8.43609       45.60511486        0.52876976
        8.53578       46.08619669        0.49515052
        8.63548       45.88043495        0.48834806
        8.73517       46.09059557        0.48015386
        8.83486       46.48445676        0.48340842
        8.93456       46.62580430        0.48166808
        9.03425       46.36139019        0.46621434
        9.13394       47.08803292        0.47079779
        9.23364       45.57831329        0.46982875
        9.33333       46.85233707        0.48615614
        9.43302       46.36769620        0.48377440
        9.53272       45.52809761        0.46311088
        9.63241       46.15918405        0.47954252
        9.73210       45.57804580        0.47551106
        9.83180       46.98708340        0.50320293
        9.93149       46.09861121        0.49477858
       10.03118       46.83537267        0.47992228
       10.13088       45.87222574        0.46350328
       10.23057       46.42277724        0.48833314
       10.33026       45.68784556        0.50069933
       10.42996       46.78874775        0.49984911
       10.52965       47.49678851        0.48778937
       10.62934       46.33343346        0.48283839
       10.72904       47.33565622        0.49533648
       10.82873       48.10933444        0.49691849
       10.92842       47.04088616        0.49951306
       11.02812       47.53455744        0.47842323
       11.12781       47.96594381        0.49786526
       11.22750       49.31666243        0.50997566
       11.32720       50.09871496        0.52790043
       11.42689       50.57968430        0.51206807
       11.52658       52.24014729        0.51435157
       11.62628       53.35905792        0.52557310
       11.72597       56.60976605        0.55315541
       11.82567       59.47263535        0.58302524
       11.92536       62.64363814        0.56027001
       12.02505       68.40822296        0.58879317
       12.12475       75.41931873        0.61841409
       12.22444       82.52660801        0.68678400
       12.32413       96.19764798        0.75452320
       12.42383      105.62089395        0.75156626
       12.52352      123.17401941        0.80888891
       12.62321      144.28397794        0.90331300
       12.72291      171.34454558        0.96192497
       12.82260      195.93718081        1.12228909
       12.92229      219.80694643        1.08337753
       13.02199      247.91667901        1.14607814
       13.12168      272.99620350        1.22773353
       13.22137      302.28762795        1.33914652
       13.32107      325.30134614        1.43814631
       13.42076      350.88173630        1.44256630
       13.52045      367.01291961        1.49606649
       13.62015      367.90424664        1.45164283
       13.71984      347.92252777        1.46709173
       13.81953      321.72943619        1.42978972
       13.91923      279.61140680        1.24494439
       14.01892      220.61754291        1.06797972
       14.11861      169.57708164        0.97002618
       14.21831      132.21524634        0.85284792
       14.31800      105.65216140        0.79954077
       14.41769       82.96745892        0.68004238
       14.51739       70.41162311        0.61006591
       14.61708       60.66656388        0.56684714
       14.71677       55.26958346        0.54941235
       14.81647       51.96536080        0.55778437
       14.91616       50.03279878        0.50315931
       15.01585       48.30451878        0.50315748
       15.11555       48.77964468        0.51152911
       15.21524       48.68476770        0.52668766
       15.31493       48.00987570        0.53557422
       15.41463       48.21672300        0.51969200
       15.51432       47.13944388        0.49783878
       15.61402       46.63677600        0.50767199
       15.71371       47.42799793        0.50851369
       15.81340       47.16116883        0.52748852
       15.91310       47.53421166        0.51459405
       16.01279       46.28400004        0.48609032
       16.11248       46.97532062        0.50291806
       16.21218       46.39939187        0.51362544
       16.31187       47.09797464        0.51880585
       16.41156       47.56911906        0.51172756
       16.51126       48.62564065        0.52622381
       16.61095       48.72855447        0.50794574
       16.71064       49.19361270        0.52654207
       16.81034       50.55411414        0.53551527
       16.91003       52.06431387        0.52792055
       17.00972       54.02755001        0.51644334
       17.10942       56.62565034        0.55906918
       17.20911       60.91873892        0.58542371
       17.30880       65.28021301        0.61172982
       17.40850       67.91510094        0.62407649
       17.50819       72.19846716        0.62524856
       17.60788       74.15295883        0.65354355
       17.70758       73.34984625        0.65258216
       17.80727       74.39200199        0.66543529
       17.90696       70.96070077        0.60729275
       18.00666       66.26352209        0.59667389
       18.10635       62.18741569        0.56184771
       18.20604       58.74318442        0.59869922
       18.30574       56.29455934        0.55834863
       18.40543       53.85613921        0.53238711
       18.50512       53.64992425        0.54811829
       18.60482       53.66968542        0.53962314
       18.70451       51.36357207        0.55764324
       18.80420       50.12590275        0.51740522
       18.90390       49.77116501        0.51003595
       19.00359       48.30228693        0.48919439
       19.10328       47.44983695        0.51289867
       19.20298       46.79420819        0.52513197
       19.30267       45.75490036        0.49857308
       19.40237       46.05562182        0.49457344
       19.50206       45.17212591        0.50204423
       19.60175       44.77464040        0.49419169
       19.70145       44.57147045        0.51701056
       19.80114       45.00627208        0.49277670
       19.90083       45.27971027        0.47759053
       20.00053       45.71595813        0.48843765
       20.10022       46.81377817        0.49803355
       20.19991       46.11415294        0.52839532
       20.29961       47.40725124        0.50774248
       20.39930       49.17061639        0.53288358
       20.49899       50.35093970        0.52998191
       20.59869       51.10083913        0.54374666
       20.69838       52.36232624        0.57083942
       20.79807       52.43199319        0.54483521
       20.89777       52.55785293        0.53315970
       20.99746       56.43217603        0.55832934
       21.09715       57.14986869        0.59190026
       21.19685       56.73415033        0.58662747
       21.29654       56.82050362        0.57269567
       21.39623       57.10033960        0.57416210
       21.49593       56.63495860        0.56359920
       21.59562       52.50301082        0.55531969
       21.69531       52.46156565        0.57737375
       21.79501       48.54324884        0.50772894
       21.89470       46.49512688        0.48554857
       21.99439       46.36191873        0.50539747
       22.09409       46.19546542        0.50572485
       22.19378       45.00721440        0.53001320
       22.29347       45.14618637        0.49439827
       22.39317       45.67970929        0.51024155
       22.49286       46.57139239        0.51486555
       22.59255       47.65320108        0.52703403
       22.69225       49.17212819        0.56432001
       22.79194       51.33625230        0.51803916
       22.89163       54.84022163        0.52527727
       22.99133       59.49927385        0.56276201
       23.09102       63.94957528        0.60638203
       23.19072       66.96489227        0.62230090
       23.29041       70.45037253        0.63072252
       23.39010       71.07253483        0.64020673
       23.48980       69.64896844        0.63590753
       23.58949       67.15355552        0.63251285
       23.68918       63.40159686        0.64586117
       23.78888       57.58308565        0.54799211
       23.88857       54.27701542        0.53868174
       23.98826       49.75691134        0.52687132
       24.08796       47.38655896        0.50394289
       24.18765       45.21871210        0.52728361
       24.28734       44.99572402        0.50076687
       24.38704       43.92619805        0.50295548
       24.48673       44.78169264        0.50608881
       24.58642       45.22616165        0.52546318
       24.68612       44.37239572        0.51971490
       24.78581       44.68904279        0.48082186
       24.88550       44.28609676        0.47842057
       24.98520       45.27317444        0.50170198
       25.08489       45.17896665        0.51117845
       25.18458       46.04487357        0.52697356
       25.28428       46.42108215        0.51001217
       25.38397       48.69724201        0.52003446
       25.48366       50.33528823        0.53202262
       25.58336       54.24952606        0.57607356
       25.68305       60.25580241        0.59606383
       25.78274       69.64927877        0.60577790
       25.88244       85.98869595        0.69192628
       25.98213      104.18932859        0.77005276
       26.08182      128.25589883        0.88005663
       26.18152      150.16137634        0.97847543
       26.28121      173.92974487        0.99963877
       26.38090      191.15318755        1.05952610
       26.48060      196.46978435        1.10472012
       26.58029      189.04656237        1.12931247
       26.67998      173.03811164        1.01812541
       26.77968      150.57225091        0.93540648
       26.87937      118.22342973        0.81295400
       26.97907       96.08787681        0.72432854
       27.07876       82.24321700        0.71998134
       27.17845       77.38332594        0.66688751
       27.27815       76.89275205        0.64913394
       27.37784       82.60196843        0.69968437
       27.47753       87.74992695        0.71112396
       27.57723       85.82804972        0.73649316
       27.67692       83.07239642        0.70691812
       27.77661       77.74608546        0.65217137
       27.87631       69.85473112        0.60713982
       27.97600       61.81758196        0.58325659
       28.07569       56.98594423        0.59222884
       28.17539       52.37895228        0.54313967
       28.27508       49.46138484        0.52776880
       28.37477       49.14543470        0.53857331
       28.47447       49.12607774        0.53425998
       28.57416       48.80100315        0.57565270
       28.67385       50.88606690        0.52316232
       28.77355       52.52162992        0.52205761
       28.87324       55.44935812        0.55097395
       28.97293       57.18668507        0.56101171
       29.07263       56.78512483        0.60933729
       29.17232       56.65160315        0.55540669
       29.27201       55.48610175        0.55970835
       29.37171       53.60579760        0.56575633
       29.47140       50.25419346        0.54115120
       29.57109       49.20868503        0.56773648
       29.67079       47.20192339        0.50603793
       29.77048       47.69724109        0.50991035
       29.87017       46.07483657        0.49118800
       29.96987       46.59777800        0.51798606
       30.06956       46.60278014        0.53442631
       30.16925       46.43462009        0.50227183
       30.26895       47.00699219        0.50733894
       30.36864       47.19005344        0.51664915
       30.46833       49.85942072        0.53668986
       30.56803       52.89457799        0.58422879
       30.66772       53.98049999        0.54931932
       30.76742       58.49250915        0.56080142
       30.86711       61.78181305        0.58816723
       30.96680       63.15550384        0.59824546
       31.06650       60.84455327        0.61546243
       31.16619       61.66930801        0.58267658
       31.26588       59.19290496        0.56718899
       31.36558       57.45780819        0.56596488
       31.46527       57.01096564        0.58655422
       31.56496       59.23831899        0.60773671
       31.66466       62.34055581        0.58334683
       31.76435       68.79527604        0.61283120
       31.86404       77.72179496        0.64376717
       31.96374       84.63970784        0.68817133
       32.06343       87.37766704        0.72390355
       32.16312       87.48364555        0.68074396
       32.26282       82.99575664        0.67875941
       32.36251       77.42638756        0.68120723
       32.46220       73.66749000        0.67598245
       32.56190       70.28666151        0.67163474
       32.66159       68.76815566        0.63073580
       32.76128       66.07019205        0.60409235
       32.86098       65.46932618        0.61030831
       32.96067       63.15566794        0.60669545
       33.06036       61.59096542        0.60990061
       33.16006       59.59578433        0.56480403
       33.25975       58.16127911        0.57594878
       33.35944       55.89448871        0.56745070
       33.45914       56.33776226        0.59141104
       33.55883       57.56698010        0.59935420
       33.65852       59.70143218        0.56936200
       33.75822       65.46312453        0.59573988
       33.85791       71.32753061        0.62497102
       33.95760       82.08017561        0.69143248
       34.05730       92.67917761        0.72880472
       34.15699      106.12652721        0.76910849
       34.25668      121.68627306        0.82263370
       34.35638      149.22140506        0.93840885
       34.45607      187.28613188        1.11343546
       34.55577      229.85536869        1.18245088
       34.65546      292.00556814        1.28903345
       34.75515      360.91155454        1.47361902
       34.85485      418.43896112        1.58633843
       34.95454      441.37395469        1.68531692
       35.05423      430.60217243        1.71931750
       35.15393      389.34158378        1.52732245
       35.25362      322.54043956        1.39965927
       35.35331      253.79479234        1.26224850
       35.45301      194.08533152        1.14230757
       35.55270      148.87038310        0.96781875
       35.65239      111.03692395        0.80265800
       35.75209       91.29962275        0.72031626
       35.85178       81.01303807        0.67650613
       35.95147       73.23378943        0.65750838
       36.05117       69.21296238        0.62563807
       36.15086       67.02399883        0.59177578
       36.25055       64.72935149        0.60736234
       36.35025       61.86969971        0.60513217
       36.44994       61.07387631        0.61316662
       36.54963       57.48209805        0.57069130
       36.64933       58.87891778        0.56910367
       36.74902       56.03869567        0.56073408
       36.84871       54.34030051        0.54802680
       36.94841       52.83234822        0.58422442
       37.04810       51.53368476        0.50865347
       37.14779       49.78128239        0.51002658
       37.24749       49.51821098        0.52280332
       37.34718       48.09154569        0.52822899
       37.44687       47.77872501        0.56554326
       37.54657       47.05326093        0.51230460
       37.64626       47.05696360        0.51036067
       37.74595       46.59685706        0.49987889
       37.84565       46.38187903        0.52767579
       37.94534       46.20738418        0.53653947
       38.04503       46.84963467        0.48835131
       38.14473       46.57934190        0.49168935
       38.24442       47.07416566        0.50337130
       38.34412       47.90808712        0.53098560
       38.44381       48.92676793        0.58032519
       38.54350       48.79134183        0.51658004
       38.64320       49.40993572        0.51832445
       38.74289       50.39300490        0.53039210
       38.84258       52.29231847        0.54177991
       38.94228       56.08732431        0.58890152
       39.04197       58.75895660        0.54376529
       39.14166       64.17852760        0.59171038
       39.24136       68.29877397        0.60918569
       39.34105       70.30137818        0.63981738
       39.44074       71.71323102        0.70503188
       39.54044       71.81232033        0.63083872
       39.64013       69.35049424        0.61777937
       39.73982       67.10783218        0.60994094
       39.83952       62.29107290        0.58319446
       39.93921       59.80941883        0.60567497
       40.03890       58.73711014        0.54932128
       40.13860       57.06936494        0.54061199
       40.23829       56.75922267        0.55818496
       40.33798       56.42012271        0.57382948
       40.43768       55.91469543        0.59763432
       40.53737       56.43446645        0.55730392
       40.63706       56.14558544        0.56751848
       40.73676       57.21901680        0.57211430
       40.83645       59.32823155        0.58764102
       40.93614       62.72382042        0.61470596
       41.03584       66.01215366        0.59377918
       41.13553       77.18762832        0.64398685
       41.23522       92.70889642        0.72470501
       41.33492      113.99533309        0.84402494
       41.43461      139.40808082        0.96705007
       41.53430      163.98985860        0.98583405
       41.63400      193.10821041        1.09790007
       41.73369      211.48879235        1.12688320
       41.83338      217.56181858        1.17447655
       41.93308      220.72801392        1.17302654
       42.03277      226.07215572        1.08590126
       42.13247      252.16852341        1.20999974
       42.23216      297.17573420        1.32416386
       42.33185      357.94619564        1.57266627
       42.43155      414.24682979        1.67863359
       42.53124      471.70125723        1.74655741
       42.63093      509.80446973        1.82718234
       42.73063      523.73703914        1.86317578
       42.83032      514.56121752        1.87761427
       42.93001      485.67681939        1.74984130
       43.02971      426.34447811        1.53784775
       43.12940      348.10746357        1.40384126
       43.22909      270.42848428        1.28713563
       43.32879      211.77531993        1.19031954
       43.42848      162.17204697        1.01148409
       43.52817      119.06705569        0.82384644
       43.62787       91.32973834        0.71605238
       43.72756       75.70067972        0.66569758
       43.82725       68.51142072        0.66053498
       43.92695       61.87589535        0.56861755
       44.02664       57.51726240        0.54520811
       44.12633       56.40066140        0.55991276
       44.22603       56.00916185        0.58072843
       44.32572       54.04073872        0.60100899
       44.42541       54.32292673        0.57533901
       44.52511       55.18268482        0.56436109
       44.62480       55.69119254        0.57502056
       44.72449       56.86801387        0.56321051
       44.82419       60.60212137        0.65281267
       44.92388       65.60389336        0.56694071
       45.02357       75.60011808        0.61458844
       45.12327       88.50735821        0.68634588
       45.22296      108.05214226        0.78070760
       45.32265      130.77144282        0.95339125
       45.42235      154.26061507        0.94613962
       45.52204      183.42620607        1.02575674
       45.62174      203.32071701        1.10259429
       45.72143      218.00527690        1.14393536
       45.82112      221.97845448        1.26416390
       45.92082      221.78389388        1.07266041
       46.02051      217.64190997        1.08459245
       46.12020      217.52104509        1.08796738
       46.21990      211.50892945        1.12653722
       46.31959      198.91038128        1.17766707
       46.41928      185.98160914        1.04995374
       46.51898      162.89383251        0.98476313
       46.61867      135.89438416        0.89125994
       46.71836      110.27408257        0.82019249
       46.81806       92.84519129        0.77821772
       46.91775       75.82805727        0.61132712
       47.01744       66.06600106        0.58327624
       47.11714       66.66580460        0.59936114
       47.21683       70.58916803        0.63530703
       47.31652       78.33817889        0.73105229
       47.41622       90.13639142        0.74037770
       47.51591      103.28240264        0.79558749
       47.61560      119.04985013        0.84902927
       47.71530      131.21152780        0.90252317
       47.81499      143.57130422        0.96955923
       47.91468      156.14112767        0.88614362
       48.01438      165.57284557        0.91418155
       48.11407      170.85461071        0.96415565
       48.21376      168.32096554        0.99873813
       48.31346      164.63307928        1.02239402
       48.41315      155.90838189        0.92622456
       48.51284      142.10602128        0.91185123
       48.61254      126.58733313        0.85516406
       48.71223      111.54136359        0.81547022
       48.81192       95.55587784        0.75112024
       48.91162       79.46267484        0.61244961
       49.01131       66.06770089        0.57676521
       49.11100       59.22391701        0.56511470
       49.21070       54.81887948        0.57038989
       49.31039       51.94060204        0.57113610
       49.41009       50.36012220        0.53112916
       49.50978       50.01200253        0.54021012
       49.60947       48.45094185        0.53545936
       49.70917       48.58831627        0.55611414
       49.80886       48.40501882        0.54019774
       49.90855       49.04451923        0.49538040
       50.00825       50.03695547        0.51102407
       50.10794       50.03719561        0.52265544
       50.20763       50.75102998        0.55000337
       50.30733       53.55272606        0.59209840
       50.40702       53.83575050        0.55674259
       50.50671       53.41639361        0.55615810
       50.60641       55.83426866        0.56965011
       50.70610       56.33205434        0.58880680
       50.80579       56.68776917        0.58290428
       50.90549       55.71411075        0.52091685
       51.00518       54.82671668        0.52125301
       51.10487       54.91297050        0.53924662
       51.20457       54.97936129        0.57442993
       51.30426       55.98845346        0.57676299
       51.40395       56.52113175        0.55560171
       51.50365       59.21573492        0.57545502
       51.60334       59.68459863        0.58918618
       51.70303       60.27279308        0.62882220
       51.80273       61.34438998        0.58201264
       51.90242       60.50561034        0.53997132
       52.00211       61.36390360        0.54644035
       52.10181       62.40375291        0.56859391
       52.20150       62.29096603        0.62559870
       52.30119       63.88648983        0.61047614
       52.40089       62.27151095        0.59310746
       52.50058       61.70113348        0.60147896
       52.60027       60.92905727        0.60578676
       52.69997       60.25870711        0.66014923
       52.79966       61.50310398        0.56083013
       52.89935       66.41108806        0.56278817
       52.99905       75.54118024        0.61096858
       53.09874       88.00135965        0.68208118
       53.19844       98.46977570        0.82758888
       53.29813      111.38040179        0.78377455
       53.39782      122.23268258        0.85078106
       53.49752      131.60958813        0.88806468
       53.59721      139.57561528        0.91493841
       53.69690      144.93514532        1.02383713
       53.79660      147.61744703        0.86589525
       53.89629      147.48911077        0.85616664
       53.99598      143.86482655        0.86577597
       54.09568      134.91819960        0.87432840
       54.19537      124.56241744        0.91475211
       54.29506      115.27662052        0.80728339
       54.39476      106.31806961        0.78019779
       54.49445       99.01489698        0.75259231
       54.59414       93.06541711        0.74003282
       54.69384       90.91216981        0.78001768
       54.79353       87.19891020        0.65468649
       54.89322       83.96361669        0.63977086
       54.99292       80.49472136        0.64439008
       55.09261       75.97378324        0.65055033
       55.19230       71.58377955        0.67764106
       55.29200       65.86993904        0.60443612
       55.39169       62.73316700        0.60832740
       55.49138       58.93704883        0.58707251
       55.59108       57.51220225        0.59838998
       55.69077       56.17071240        0.60676563
       55.79046       55.00047374        0.52482220
       55.89016       55.82615376        0.52755914
       55.98985       56.41732770        0.53379935
       56.08954       60.04172242        0.56918104
       56.18924       65.63462266        0.64284695
       56.28893       72.59478418        0.61947334
       56.38862       83.56527231        0.68872742
       56.48832       95.39078497        0.74993303
       56.58801      103.16108435        0.80339681
       56.68770      113.40634485        0.87082832
       56.78740      114.68633370        0.74960772
       56.88709      114.59114085        0.75676522
       56.98679      106.69242240        0.72993328
       57.08648       95.53157583        0.73086817
       57.18617       84.24727363        0.70937443
       57.28587       75.38254339        0.62606008
       57.38556       65.91682567        0.62224164
       57.48525       60.44674310        0.60677542
       57.58495       56.37964443        0.59903707
       57.68464       54.26927562        0.59263898
       57.78433       52.33882185        0.50896974
       57.88403       52.34661270        0.51494251
       57.98372       51.45355438        0.51858021
       58.08341       51.92672756        0.56332409
       58.18311       52.36424538        0.57871007
       58.28280       53.34475970        0.55025383
       58.38249       53.16113377        0.57395476
       58.48219       52.97615636        0.58530864
       58.58188       52.20682385        0.58731923
       58.68157       52.46429513        0.57696608
       58.78127       52.79052526        0.50626904
       58.88096       54.00311073        0.50460138
       58.98065       55.48910787        0.53110971
       59.08035       55.82743868        0.56847897
       59.18004       58.16007532        0.58882887
       59.27973       58.78172451        0.55856969
       59.37943       61.66405759        0.59124723
       59.47912       66.63569598        0.64035110
       59.57881       72.18009863        0.69882247
       59.67851       76.64888663        0.67187438
       59.77820       83.69765419        0.64616103
       59.87789       93.33113766        0.68097763
       59.97759       99.88686186        0.73771578
       60.07728      103.50065177        0.81366239
       60.17697      108.13058120        0.79286710
       60.27667      107.94662544        0.77016725
       60.37636      106.98562280        0.78147623
       60.47605      104.67912802        0.80612326
       60.57575      100.14179434        0.86347189
       60.67544       93.60815435        0.71646393
       60.77514       86.61171779        0.65444031
       60.87483       78.03767693        0.60829929
       60.97452       71.41880094        0.61239376
       61.07422       68.82314555        0.67504867
       61.17391       66.48540057        0.57450548
       61.27360       66.16652989        0.59344537
       61.37330       66.64072769        0.61770651
       61.47299       68.00638248        0.65158101
       61.57268       69.47370031        0.74910389
       61.67238       69.47761230        0.61055385
       61.77207       70.77371227        0.60028950
       61.87176       71.56328613        0.59698455
       61.97146       70.53739618        0.61523021
       62.07115       68.51051798        0.68646558
       62.17084       69.45708933        0.60566838
       62.27054       67.33985886        0.62159491
       62.37023       67.72494341        0.64824629
       62.46992       68.17976338        0.67276456
       62.56962       70.62819289        0.76938788
       62.66931       72.01994480        0.62603955
       62.76900       78.14692883        0.63627531
       62.86870       85.84030511        0.65314589
       62.96839       94.68290040        0.70887918
       63.06808      102.01940176        0.81985064
       63.16778      106.01058541        0.74232276
       63.26747      110.16198865        0.78357529
       63.36716      112.87365347        0.82345116
       63.46686      113.71785452        0.85138914
       63.56655      118.09541883        0.92237332
       63.66624      125.65304382        0.80964413
       63.76594      140.18162133        0.83263413
       63.86563      156.49853458        0.87934152
       63.96532      167.12865866        0.95249028
       64.06502      173.53472119        1.04085567
       64.16471      173.41839810        0.96244602
       64.26440      166.18958496        0.97973764
       64.36410      153.97008697        0.96026849
       64.46379      140.45630608        0.96792610
       64.56349      126.10223911        0.93134219
       64.66318      109.20469549        0.75654594
       64.76287       88.98150096        0.67227311
       64.86257       74.44538329        0.61251735
       64.96226       65.52391484        0.60103416
       65.06195       59.99418874        0.62130387
       65.16165       56.28237236        0.54251067
       65.26134       53.78708659        0.54253172
       65.36103       53.62451332        0.56524859
       65.46073       55.21265754        0.59256552
       65.56042       54.98666421        0.61760627
       65.66011       56.47522759        0.54590805
       65.75981       57.35323637        0.54471422
       65.85950       59.66726827        0.55226744
       65.95919       62.52297438        0.59206775
       66.05889       64.55343555        0.62247873
       66.15858       70.44449161        0.61895607
       66.25827       75.48781906        0.66316202
       66.35797       83.00302598        0.72526636
       66.45766       95.78340023        0.82951616
       66.55735      106.95983568        0.87786674
       66.65705      121.86844905        0.83314373
       66.75674      135.90794655        0.85921270
       66.85643      149.45350991        0.89263158
       66.95613      161.34813824        0.96613318
       67.05582      168.04005822        0.99440908
       67.15551      169.48621403        0.95058662
       67.25521      165.92666558        0.98672147
       67.35490      154.26681485        0.99981636
       67.45459      139.97883640        1.00224117
       67.55429      125.03233112        0.90548024
       67.65398      106.91953988        0.74843972
       67.75367       89.84328433        0.67861627
       67.85337       79.80336436        0.64640574
       67.95306       75.82597387        0.67333051
       68.05275       76.71414757        0.64139189
       68.15245       79.89800290        0.64925652
       68.25214       84.19101217        0.70784576
       68.35184       93.08957911        0.77681635
       68.45153       98.99168450        0.88266696
       68.55122      106.70914561        0.79043453
       68.65092      116.16203144        0.76983990
       68.75061      123.32063919        0.80229537
       68.85030      127.46644347        0.83192738
       68.95000      127.18152443        0.94211400
       69.04969      123.43601097        0.78337011
       69.14938      115.65151269        0.77877458
       69.24908      104.57140699        0.78946030
       69.34877       94.13481796        0.77342438
       69.44846       87.57668893        0.86442313
       69.54816       79.31618314        0.64055558
       69.64785       69.63183252        0.59079809
       69.74754       60.87048694        0.55712508
       69.84724       55.39573054        0.54484048
       69.94693       52.87532189        0.60048121
       70.04662       50.51497362        0.48245970
       70.14632       48.23944356        0.49006921
       70.24601       47.30453473        0.51953904
       70.34570       46.79390932        0.54674826
       70.44540       46.89181768        0.64488324
       70.54509       47.87437170        0.51012012
       70.64478       49.28424264        0.51696749
       70.74448       49.72420017        0.52754066
       70.84417       50.23337698        0.55026461
       70.94386       50.71609195        0.60698241
       71.04356       50.86909831        0.50304676
       71.14325       51.47971260        0.52593844
       71.24294       52.21126299        0.55736074
       71.34264       53.35476552        0.59754930
       71.44233       53.90062303        0.67026621
       71.54202       54.51331103        0.54883145
       71.64172       53.28951022        0.52773548
       71.74141       52.46397492        0.51405616
       71.84110       51.87415237        0.52907521
       71.94080       52.35961377        0.57926709
       72.04049       51.39399109        0.48566893
       72.14019       50.82755922        0.50317488
       72.23988       51.27122424        0.52881098
       72.33957       50.53205919        0.58633661
       72.43927       52.55331163        0.65845217
       72.53896       52.05023235        0.52535757
       72.63865       52.73802953        0.51695654
       72.73835       54.78620224        0.51549421
       72.83804       57.58310212        0.55833514
       72.93773       57.88137106        0.59463924
       73.03743       59.56121482        0.52374149
       73.13712       61.62532240        0.56201446
       73.23681       62.31109753        0.59379352
       73.33651       62.83274766        0.65617059
       73.43620       61.43734746        0.70262003
       73.53589       62.46978567        0.57164075
       73.63559       62.85446283        0.56443154
       73.73528       63.56813649        0.56511752
       73.83497       64.49442850        0.60356352
       73.93467       64.34686870        0.63481046
       74.03436       65.29207653        0.56600895
       74.13405       64.49077951        0.58635993
       74.23375       63.79671464        0.60740966
       74.33344       64.85631534        0.67432825
       74.43313       66.00435835        0.70603025
       74.53283       67.16964939        0.60526471
       74.63252       70.31356438        0.61511242
       74.73221       72.02113803        0.61967184
       74.83191       75.81281708        0.67486008
       74.93160       77.53977167        0.69038755
       75.03129       80.57389170        0.62597744
       75.13099       83.04848899        0.65852281
       75.23068       87.97483068        0.70752672
       75.33037       95.03106604        0.80923564
       75.43007       97.98194788        0.83392752
       75.52976      104.70935169        0.74958723
       75.62945      115.35805725        0.78744099
       75.72915      122.06009168        0.80762783
       75.82884      129.66408963        0.89731226
       75.92854      133.20581973        0.85424258
       76.02823      142.61522441        0.83024910
       76.12792      148.18458158        0.88535809
       76.22762      150.09101504        0.94037818
       76.32731      151.99825025        1.06911380
       76.42700      152.12143595        1.00948254
       76.52670      150.86481394        0.92725815
       76.62639      143.57262889        0.89207633
       76.72608      136.21345333        0.85348243
       76.82578      130.21970817        0.96062731
       76.92547      126.62208740        0.75829235
       77.02516      125.74176865        0.78308593
       77.12486      124.33374880        0.81779801
       77.22455      126.89714213        0.88006496
       77.32424      127.92564042        1.08571815
       77.42394      131.55985655        0.87966289
       77.52363      132.29381064        0.85250019
       77.62332      133.51702604        0.85266489
       77.72302      137.47118475        0.86770564
       77.82271      138.90987440        1.02313855
       77.92240      142.12237325        0.79288678
       78.02210      140.44987987        0.85026738
       78.12179      139.15078471        0.90373409
       78.22148      136.28469568        0.94534221
       78.32118      132.86085804        1.08247366
       78.42087      125.14439162        0.82577387
       78.52056      123.23192773        0.84598400
       78.62026      117.66149099        0.81942723
       78.71995      112.65213434        0.80384494
       78.81964      106.86603496        0.87370491
       78.91934       98.66741624        0.64963917
       79.01903       88.66347436        0.67404221
       79.11872       80.80427520        0.66879559
       79.21842       75.36407734        0.68838854
       79.31811       72.97592078        0.76272413
       79.41780       68.23959045        0.59782397
       79.51750       67.36706329        0.60346777
       79.61719       67.17282855        0.60435021
       79.71689       64.14205700        0.61281912
       79.81658       66.37348392        0.66107407
       79.91627       64.15465969        0.55070315
       80.01597       63.91077574        0.56494193
       80.11566       62.26907260        0.58276954
       80.21535       62.73834441        0.62534668
       80.31505       64.72160285        0.75530408
       80.41474       64.80749467        0.58078096
       80.51443       67.97216870        0.59251019
       80.61413       72.63558653        0.63331623
       80.71382       77.71363957        0.67824018
       80.81351       86.02929485        0.80299068
       80.91321       92.20994434        0.61366231
       81.01290      110.95526695        0.72892025
       81.11259      130.22009224        0.85494595
       81.21229      147.00962731        0.98510815
       81.31198      159.58757715        1.14709530
       81.41167      178.33900270        0.95212891
       81.51137      200.96730257        1.04332511
       81.61106      217.18583057        1.13521544
       81.71075      227.61176626        1.20455241
       81.81045      236.93699438        1.30372912
       81.91014      254.71822899        1.04211782
       82.00983      268.95488150        1.14691460
       82.10953      276.96866186        1.30345988
       82.20922      282.97612344        1.46650785
       82.30891      284.64990995        1.54257690
       82.40861      283.53716141        1.25170801
       82.50830      278.72964114        1.23688647
       82.60799      278.47978094        1.33174033
       82.70769      277.80869927        1.44739240
       82.80738      278.49478553        1.38479981
       82.90707      274.56693714        1.11590408
       83.00677      269.65506841        1.17755153
       83.10646      263.25337474        1.36783989
       83.20615      254.07676779        1.49381566
       83.30585      243.81113679        1.38425298
       83.40554      226.41619383        1.10622462
       83.50524      213.34520510        1.04589371
       83.60493      192.85267389        1.09213480
       83.70462      179.79181710        1.18681684
       83.80432      168.33978852        1.00193720
       83.90401      144.23974997        0.77510010
       84.00370      121.77499781        0.74020488
       84.10340      103.96980053        0.81499088
       84.20309       96.30124270        0.95108993
       84.30278       87.01926938        0.73416607
       84.40248       79.73716988        0.61950794
       84.50217       71.74436137        0.57572127
       84.60186       67.03652915        0.62877040
       84.70156       67.81013742        0.82764673
       84.80125       66.05488201        0.56854351
       84.90094       65.52109126        0.50861818
       85.00064       63.40765909        0.51531960
       85.10033       63.83771216        0.61197814
       85.20002       64.66898331        1.05656780
       85.29972       66.30161161        0.56449676
       85.39941       67.07816996        0.57896880
       85.49910       66.62967700        0.56110323
       85.59880       67.15498934        0.63348020
       85.69849       66.84661241        1.13464182
       85.79818       65.17740691        0.52806982
       85.89788       63.57525730        0.50893700
       85.99757       62.97099183        0.52038858
       86.09726       63.32863538        0.59921430
       86.19696       61.55087902        1.13426467
       86.29665       62.38426941        0.54046550
       86.39634       61.41918842        0.54548461
       86.49604       59.31179134        0.52774551
       86.59573       56.76724396        0.54986936
       86.69542       56.64189369        1.14837046
       86.79512       54.40485353        0.46700971
       86.89481       53.92103003        0.45833843
       86.99451       53.18262483        0.47176291
       87.09420       51.93049127        0.51980029
       87.19389       52.79449441        1.24167920
       87.29359       52.32337676        0.50092793
       87.39328       50.96597991        0.50094905
       87.49297       49.31514884        0.47822943
       87.59267       48.61818634        0.48411674
       87.69236       48.43026281        1.44576965
       87.79205       49.94501482        0.45748419
       87.89175       48.19675728        0.44565260
       87.99144       48.74831207        0.46707051
       88.09113       50.68633580        0.50638224
       88.19083       52.52474936        2.72867190
       88.29052       49.58981377        0.50393516
       88.39021       48.49173460        0.50155048
       88.48991       48.19405241        0.47984203
       88.58960       48.61177195        0.46672887
       88.68929       41.94932738        3.35481141
       88.78899       48.91848058        0.45194592
       88.88868       49.12848923        0.44303932
       88.98837       49.59329440        0.46301394
       89.08807       50.06300660        0.47653273
       89.18776       47.55493340        3.77731764
       89.28745       49.68878359        0.48231801
       89.38715       51.69351230        0.49717758
       89.48684       54.22678975        0.49853748
       89.58653       56.04087161        0.49666692
       89.68623       61.40896930        4.21873016
       89.78592       59.29608908        0.49669788
       89.88561       61.42261742        0.49578295
       89.98531       63.56915702        0.51736880
       90.08500       68.04033584        0.55555664
       90.18469       82.16278100        5.10398977
       90.28439       72.16074650        0.58472631
       90.38408       77.74054499        0.61767909
       90.48377       83.77968795        0.62981923
       90.58347       88.88022510        0.63905322
       90.68316       85.62037906        4.88302418
       90.78286       90.42143063        0.61715830
       90.88255       93.02226800        0.60935971
       90.98224       97.87394184        0.64722916
       91.08194       98.44520123        0.67047670
       91.18163       98.83294943        5.36108624
       91.28132      100.49725466        0.69772269
       91.38102       99.74650904        0.71346761
       91.48071       96.93732710        0.68576163
       91.58040       93.26304071        0.65012043
       91.68010       87.99387374        4.77311096
       91.77979       90.08588157        0.61303827
       91.87948       86.26477631        0.59024755
       91.97918       82.96169815        0.60072920
       92.07887       80.36674260        0.61563165
       92.17856       85.00754645        4.81797909
       92.27826       79.42668591        0.63199114
       92.37795       78.09352976        0.64138382
       92.47764       76.68846818        0.60321795
       92.57734       78.17610360        0.59098317
       92.67703       79.10749057        3.85962562
       92.77672       80.92508649        0.57978954
       92.87642       82.94008282        0.57595361
       92.97611       86.27560774        0.61373511
       93.07580       89.63998931        0.71440508
       93.17550       89.80966161        1.34467314
       93.27519       91.23112704        0.66448248
       93.37488       91.91070133        0.64840057
       93.47458       95.70473303        0.66935685
       93.57427       97.54298663        0.78150195
       93.67396       97.84945178        1.05784651
       93.77366       97.04127080        0.65251525
       93.87335       96.11520637        0.62020042
       93.97304       92.99330560        0.63540631
       94.07274       91.12027006        0.81633483
       94.17243       89.66429328        0.92375234
       94.27212       89.47632686        0.68728194
       94.37182       90.37763029        0.67329324
       94.47151       88.90104685        0.63934687
       94.57121       88.79952931        0.84329077
       94.67090       87.89646038        0.84857711
       94.77059       85.81250558        0.65156034
       94.87029       81.39440298        0.57659864
       94.96998       75.28037793        0.56095719
       95.06967       69.80917741        0.62213607
       95.16937       71.49254173        0.86210224
       95.26906       66.74256617        0.64296513
       95.36875       64.83381417        0.57483346
       95.46845       62.54334534        0.54238005
       95.56814       61.21948346        0.61733153
       95.66783       59.49964171        0.68352933
       95.76753       57.19725203        0.55358776
       95.86722       54.51006286        0.45948329
       95.96691       54.54522822        0.47675676
       96.06661       53.06477087        0.60223545
       96.16630       53.81344454        0.64682127
       96.26599       50.14339604        0.56037275
       96.36569       49.87356688        0.50143271
       96.46538       48.77772243        0.47848975
       96.56507       47.47622237        0.58251725
       96.66477       47.61821013        0.56848359
       96.76446       46.33864931        0.50102407
       96.86415       46.87659414        0.43653676
       96.96385       47.55453504        0.45417638
       97.06354       48.20182295        0.61837458
       97.16323       48.20126874        0.59126046
       97.26293       47.06455088        0.54879154
       97.36262       48.09605658        0.51382940
       97.46231       48.87606403        0.47659634
       97.56201       48.81953933        0.60598955
       97.66170       50.72584377        0.55500065
       97.76139       50.37164422        0.50241715
       97.86109       53.15368633        0.46691282
       97.96078       54.20558636        0.48189792
       98.06047       55.50292964        0.67746211
       98.16017       55.28519627        0.60103358
       98.25986       56.29410920        0.57940996
       98.35956       57.47176501        0.55281988
       98.45925       61.30394767        0.53327922
       98.55894       63.76556672        0.70977054
       98.65864       65.39755449        0.61690967
       98.75833       67.32141059        0.58503003
       98.85802       69.60264761        0.55564851
       98.95772       71.01043137        0.55762864
       99.05741       72.44443779        0.78209567
       99.15710       74.60776131        0.68282285
       99.25680       77.01763723        0.67240222
       99.35649       78.42734135        0.64640210
       99.45618       81.70416564        0.61518966
       99.55588       84.11506987        0.83439084
       99.65557       85.21519656        0.69297991
       99.75526       87.12306889        0.65695297
       99.85496       86.13394238        0.62160806
       99.95465       85.81195446        0.60823829
      100.05434       85.71374097        0.86597301
      100.15404       85.80255455        0.72979228
      100.25373       86.04998171        0.72212183
      100.35342       85.24440409        0.71582568
      100.45312       85.37715508        0.65371523
      100.55281       84.34185658        0.85322238
      100.65250       83.13144846        0.68993762
      100.75220       80.92232854        0.63028951
      100.85189       79.97847875        0.59862359
      100.95158       79.83078491        0.58207660
      101.05128       80.27700944        0.83224677
      101.15097       79.10379397        0.68265115
      101.25066       79.05213376        0.67424098
      101.35036       78.30115550        0.67676049
      101.45005       75.68343853        0.62539105
      101.54974       73.40349071        0.76682203
      101.64944       73.96939137        0.62809946
      101.74913       74.94767212        0.59580631
      101.84882       74.58749620        0.57853866
      101.94852       76.78133637        0.61854382
      102.04821       77.31781523        0.74768410
      102.14791       78.23214520        0.67791410
      102.24760       79.03372961        0.67571723
      102.34729       77.84706103        0.66775206
      102.44699       78.50817492        0.68231799
      102.54668       79.94598973        0.72267499
      102.64637       80.57459611        0.64803986
      102.74607       82.70095634        0.62549138
      102.84576       82.50963113        0.61288384
      102.94545       86.17562020        0.71383194
      103.04515       83.62774881        0.74410071
      103.14484       83.70608620        0.69555223
      103.24453       83.90357180        0.68565191
      103.34423       84.07631528        0.68082158
      103.44392       84.53411467        0.73954901
      103.54361       85.86732977        0.72424161
      103.64331       85.05616309        0.65604013
      103.74300       85.64696282        0.62800719
      103.84269       86.27323316        0.61945477
      103.94239       84.51525702        0.73656544
      104.04208       83.51967987        0.70825028
      104.14177       83.32202346        0.68822507
      104.24147       81.97627522        0.68213979
      104.34116       82.06961439        0.68677645
      104.44085       82.69561775        0.78306470
      104.54055       80.31930834        0.69843357
      104.64024       79.48946962        0.65303023
      104.73993       77.71572837        0.61598335
      104.83963       74.13208182        0.57925908
      104.93932       72.39123611        0.69373061
      105.03901       71.91559309        0.65146176
      105.13871       71.27090055        0.62439129
      105.23840       70.35759041        0.61992386
      105.33809       69.85518553        0.62129911
      105.43779       69.77392563        0.72247602
      105.53748       69.06745635        0.64454254
      105.63717       66.29247163        0.57853154
      105.73687       64.52918001        0.54304225
      105.83656       62.91370831        0.52234123
      105.93626       60.19885586        0.64719310
      106.03595       60.09882464        0.58607093
      106.13564       59.89056532        0.56544466
      106.23534       56.64647662        0.55637644
      106.33503       56.90331236        0.56329483
      106.43472       54.73860385        0.65290850
      106.53442       55.44700367        0.57163606
      106.63411       54.46541967        0.51457037
      106.73380       53.92401169        0.48794461
      106.83350       56.14792560        0.49066033
      106.93319       56.50601991        0.63811630
      107.03288       56.20272184        0.56400361
      107.13258       57.38459243        0.55328303
      107.23227       58.17647528        0.56525006
      107.33196       57.08375359        0.55827389
      107.43166       57.38717703        0.67260592
      107.53135       57.78928671        0.58239372
      107.63104       59.08718458        0.53634787
      107.73074       60.05137198        0.51884599
      107.83043       61.33111261        0.51783195
      107.93012       62.48738988        0.69158866
      108.02982       62.72305079        0.60648446
      108.12951       62.19925576        0.57427665
      108.22920       63.26512015        0.56999442
      108.32890       63.78772532        0.56693832
      108.42859       64.77241759        0.72518859
      108.52828       65.05841115        0.61652701
      108.62798       66.74971573        0.56642498
      108.72767       65.53130637        0.53857585
      108.82736       66.04156547        0.55263032
      108.92706       64.90788277        0.69373311
      109.02675       64.56169108        0.60524333
      109.12644       64.47207436        0.59030650
      109.22614       63.75729322        0.58741450
      109.32583       64.69605055        0.64489890
      109.42552       64.99609003        0.68185856
      109.52522       64.11395380        0.61088846
      109.62491       63.72217352        0.57924074
      109.72461       62.91047349        0.55017152
      109.82430       62.47927681        0.51213019
      109.92399       61.16840119        0.65869288
      110.02369       60.44135212        0.57331187
      110.12338       60.03975891        0.56764145
      110.22307       60.20976721        0.56420698
      110.32277       60.19811394        0.57608997
      110.42246       57.92669579        0.68684744
      110.52215       57.19288188        0.57796535
      110.62185       56.43291875        0.54100563
      110.72154       56.17866271        0.50357185
      110.82123       55.37485636        0.51626409
      110.92093       56.32599157        0.60738168
      111.02062       56.60277983        0.56253609
      111.12031       56.18103694        0.56457978
      111.22001       56.99305515        0.55807115
      111.31970       57.80924624        0.61006903
      111.41939       57.56158144        0.62989930
      111.51909       57.34117078        0.57043964
      111.61878       59.01345968        0.54530142
      111.71847       61.19122011        0.51681159
      111.81817       63.93399678        0.57362692
      111.91786       65.05933612        0.60907919
      112.01755       67.98459645        0.60826166
      112.11725       70.14584844        0.62276614
      112.21694       71.99179525        0.62827377
      112.31663       71.71587263        0.69096562
      112.41633       74.03452501        0.68995825
      112.51602       78.39089396        0.65428249
      112.61571       79.75530667        0.62969106
      112.71541       83.32785816        0.60693060
      112.81510       86.01524780        0.69174019
      112.91479       87.06178233        0.70904377
      113.01449       89.00926669        0.70228913
      113.11418       88.99691985        0.69989183
      113.21387       89.46483620        0.69859308
      113.31357       88.70686729        0.77244772
      113.41326       91.38014570        0.74541402
      113.51296       91.62532852        0.70214347
      113.61265       91.98463726        0.67886690
      113.71234       92.81502278        0.65144787
      113.81204       92.43167694        0.74473115
      113.91173       91.09082552        0.71624080
      114.01142       90.58617253        0.70699864
      114.11112       89.31366035        0.70149011
      114.21081       89.55879739        0.70756272
      114.31050       89.22588510        0.80086571
      114.41020       90.50353710        0.74548697
      114.50989       88.60764267        0.69032513
      114.60958       86.73959598        0.66074739
      114.70928       88.05281068        0.64222728
      114.80897       85.84711052        0.71895120
      114.90866       87.01899380        0.68286635
      115.00836       86.65454164        0.67820740
      115.10805       88.15149646        0.68794265
      115.20774       89.60664756        0.70426931
      115.30744       90.83654820        0.81433202
      115.40713       89.78710634        0.73318397
      115.50682       90.87773283        0.69650354
      115.60652       90.72064292        0.67067192
      115.70621       89.56537024        0.64032008
      115.80590       93.59587301        0.76413478
      115.90560       94.35459371        0.69547797
      116.00529       96.32883821        0.71079678
      116.10498       96.84477991        0.72020797
      116.20468       98.96974547        0.74505281
      116.30437      100.79730810        0.89659099
      116.40406      101.85252011        0.78511113
      116.50376      103.62180314        0.74856793
      116.60345      103.82352728        0.71929203
      116.70314      109.04292972        0.71542333
      116.80284      114.08911110        0.87025354
      116.90253      114.43562025        0.78407101
      117.00222      117.61851404        0.78903908
      117.10192      122.66303413        0.82807878
      117.20161      124.25597787        0.84381180
      117.30131      125.52184858        1.01507098
      117.40100      130.22416492        0.86990024
      117.50069      131.73751447        0.83119578
      117.60039      138.61952178        0.81691797
      117.70008      144.13685562        0.80775748
      117.79977      149.43801352        1.00875830
      117.89947      151.01936850        0.88180521
      117.99916      154.78331020        0.90394242
      118.09885      157.34444431        0.92887668
      118.19855      158.48424671        0.97659767
      118.29824      165.78036737        1.09630999
      118.39793      166.65063400        0.99811849
      118.49763      171.48737925        0.95619914
      118.59732      174.22117204        0.93094376
      118.69701      177.77677209        0.98022851
      118.79671      177.35122367        1.05707737
      118.89640      178.88457387        0.99007442
      118.99609      178.45996885        0.98777089
      119.09579      179.20229101        1.00148393
      119.19548      180.50718328        1.09849795
      119.29517      179.44652796        1.13769785
      119.39487      178.82842854        1.04393606
      119.49456      177.11030498        0.97875304
      119.59425      175.01750965        0.94456247
      119.69395      168.77836033        0.97758378
      119.79364      166.43411525        0.98070139
      119.89333      161.90240889        0.93542261
      119.99303      159.09108243        0.90491587
      120.09272      153.59986630        0.90859062
      120.19241      151.53687944        1.01404139
      120.29211      147.46430035        0.98944618
      120.39180      141.64461723        0.92425537
      120.49149      136.05869124        0.84169137
      120.59119      132.94503594        0.80712782
      120.69088      127.95994933        0.85171380
      120.79057      125.44793777        0.82485798
      120.89027      123.84409215        0.80440646
      120.98996      122.13778695        0.79247738
      121.08966      122.00712691        0.79796506
      121.18935      119.41355080        0.90450289
      121.28904      118.09831097        0.87650971
      121.38874      117.50975942        0.82671539
      121.48843      116.53168825        0.77745432
      121.58812      113.82644501        0.73250155
      121.68782      115.76743306        0.81864678
      121.78751      113.90470799        0.77354533
      121.88720      113.88031893        0.76357028
      121.98690      113.26191185        0.76711924
      122.08659      111.78961396        0.77718465
      122.18628      109.65604719        0.89261117
      122.28598      108.60055229        0.83520256
      122.38567      108.92296355        0.80113255
      122.48536      107.57300070        0.75293423
      122.58506      109.01545828        0.71804947
      122.68475      107.31905204        0.80709083
      122.78444      106.76457403        0.75792764
      122.88414      105.79610392        0.74795431
      122.98383      104.40296307        0.75805770
      123.08352      101.90918388        0.74222964
      123.18322      104.66591259        0.87771762
      123.28291      102.80325189        0.79033039
      123.38260      103.24490638        0.76465200
      123.48230      101.92032541        0.73207305
      123.58199      100.89627584        0.68068392
      123.68168       97.71525958        0.76397364
      123.78138       98.18275832        0.69096293
      123.88107       94.38656089        0.66138024
      123.98076       91.97934238        0.66469568
      124.08046       91.29037289        0.65514722
      124.18015       91.15359624        0.74096286
      124.27984       88.51849802        0.65389327
      124.37954       86.35610451        0.60922544
      124.47923       84.31823690        0.58749325
      124.57893       79.78837914        0.60839532
