        5.04651       55.62712932        1.14660542
        5.14621       55.34457428        1.10217937
        5.24590       52.87736174        1.06142883
        5.34559       52.14987646        0.96666311
        5.44529       52.06432191        1.05076303
        5.54498       49.58829898        0.86223473
        5.64467       51.80997206        0.87397188
        5.74437       48.89302569        0.76600540
        5.84406       50.12272011        0.78505087
        5.94375       50.38595595        0.78609056
        6.04345       48.17730268        0.74661906
        6.14314       48.60848089        0.68671729
        6.24283       47.94343580        0.70443527
        6.34253       48.32672922        0.67461135
        6.44222       47.39334280        0.70333410
        6.54191       48.15843329        0.67174691
        6.64161       48.31125359        0.63739749
        6.74130       48.16293699        0.63897248
        6.84099       48.11641024        0.63403462
        6.94069       47.53403727        0.63961055
        7.04038       46.99837022        0.58701598
        7.14007       47.80863968        0.59091022
        7.23977       47.57360530        0.57912640
        7.33946       46.77192183        0.58293472
        7.43915       47.39292165        0.57919742
        7.53885       47.59067139        0.56971531
        7.63854       47.51153044        0.54406065
        7.73823       46.74915853        0.56030550
        7.83793       46.60995500        0.54139319
        7.93762       46.03877523        0.56122431
        8.03732       46.94614101        0.50833658
        8.13701       46.64158035        0.50437113
        8.23670       46.55389195        0.51099926
        8.33640       47.77792587        0.51792581
        8.43609       46.78029756        0.53569419
        8.53578       46.24573930        0.49606273
        8.63548       46.49084534        0.49167983
        8.73517       46.72817754        0.48355814
        8.83486       46.19790943        0.48193308
        8.93456       47.64502237        0.48703174
        9.03425       46.19939950        0.46542555
        9.13394       46.32432569        0.46694197
        9.23364       46.64209023        0.47540820
        9.33333       46.48789144        0.48427208
        9.43302       45.98602784        0.48178817
        9.53272       46.66795480        0.46900510
        9.63241       45.45875877        0.47587275
        9.73210       45.95234130        0.47753120
        9.83180       47.31984060        0.50505368
        9.93149       45.58444673        0.49200936
       10.03118       46.87871492        0.48018867
       10.13088       46.41385277        0.46631512
       10.23057       46.89954067        0.49091670
       10.33026       45.60498835        0.50028039
       10.42996       46.58587456        0.49878903
       10.52965       46.62955143        0.48328380
       10.62934       47.25680060        0.48774552
       10.72904       46.09317315        0.48872831
       10.82873       47.78053210        0.49523123
       10.92842       47.20385341        0.50043422
       11.02812       47.65735200        0.47909166
       11.12781       48.60295264        0.50125829
       11.22750       48.63119465        0.50640178
       11.32720       49.86653175        0.52669916
       11.42689       50.35855296        0.51097119
       11.52658       52.74645192        0.51692727
       11.62628       54.02248144        0.52893593
       11.72597       56.84753524        0.55438560
       11.82567       59.71047156        0.58426329
       11.92536       63.31984275        0.56339921
       12.02505       68.79686633        0.59055269
       12.12475       75.11633934        0.61719038
       12.22444       84.25732067        0.69421247
       12.32413       95.96912630        0.75365995
       12.42383      107.28624758        0.75774603
       12.52352      124.74880199        0.81432769
       12.62321      145.83635811        0.90847103
       12.72291      171.23871504        0.96168916
       12.82260      194.94819581        1.11936055
       12.92229      218.81082570        1.08082993
       13.02199      247.26238401        1.14453395
       13.12168      274.69362276        1.23197824
       13.22137      303.12952271        1.34129483
       13.32107      324.73300556        1.43687127
       13.42076      350.69115051        1.44224201
       13.52045      368.30019691        1.49910410
       13.62015      367.03317114        1.44983655
       13.71984      347.88459842        1.46711577
       13.81953      319.39460817        1.42417479
       13.91923      281.24343209        1.24899803
       14.01892      219.93861636        1.06630186
       14.11861      169.86590988        0.97097772
       14.21831      132.78574599        0.85483871
       14.31800      106.29370278        0.80211894
       14.41769       82.86794722        0.67967981
       14.51739       70.02462333        0.60839771
       14.61708       61.05496319        0.56874504
       14.71677       54.59880137        0.54605093
       14.81647       52.13543146        0.55876022
       14.91616       49.10375121        0.49842776
       15.01585       49.02532584        0.50700416
       15.11555       48.45355191        0.50983083
       15.21524       48.40458984        0.52518895
       15.31493       47.09650760        0.53041605
       15.41463       46.52014829        0.51035990
       15.51432       47.26617146        0.49856082
       15.61402       46.94532695        0.50941918
       15.71371       46.16012595        0.50160275
       15.81340       46.28620437        0.52253735
       15.91310       46.94091428        0.51136320
       16.01279       47.36162871        0.49185044
       16.11248       47.51550065        0.50589181
       16.21218       46.77480405        0.51577655
       16.31187       47.53814259        0.52130866
       16.41156       47.60613233        0.51197336
       16.51126       47.68818615        0.52108593
       16.61095       48.04883971        0.50437387
       16.71064       49.37532076        0.52757502
       16.81034       49.75641321        0.53124496
       16.91003       52.47948874        0.53010436
       17.00972       53.90090044        0.51587003
       17.10942       56.60159305        0.55899538
       17.20911       60.66591316        0.58423145
       17.30880       64.23200210        0.60673997
       17.40850       68.06036505        0.62481187
       17.50819       72.13941163        0.62503904
       17.60788       74.90273317        0.65697933
       17.70758       72.94281374        0.65077812
       17.80727       73.41495675        0.66099541
       17.90696       71.58810444        0.61008887
       18.00666       67.26832574        0.60133576
       18.10635       62.90769331        0.56521020
       18.20604       59.44475151        0.60238779
       18.30574       57.38434997        0.56388132
       18.40543       55.41893495        0.54024834
       18.50512       53.63843056        0.54810490
       18.60482       53.28306655        0.53768549
       18.70451       52.34592100        0.56309425
       18.80420       51.63379415        0.52531186
       18.90390       50.60467132        0.51440700
       19.00359       48.61912714        0.49086487
       19.10328       48.07500498        0.51636633
       19.20298       47.96264921        0.53180087
       19.30267       45.85207560        0.49915306
       19.40237       45.83562301        0.49341381
       19.50206       45.50447671        0.50395966
       19.60175       45.62973278        0.49900492
       19.70145       45.67978098        0.52354444
       19.80114       44.95530566        0.49253508
       19.90083       45.36935308        0.47811112
       20.00053       45.83367055        0.48911763
       20.10022       46.55557405        0.49667806
       20.19991       46.46850649        0.53049932
       20.29961       48.45074217        0.51343673
       20.39930       48.60146067        0.52978309
       20.49899       49.47619271        0.52532281
       20.59869       51.22085275        0.54444229
       20.69838       50.74957042        0.56187013
       20.79807       51.65652407        0.54076422
       20.89777       52.41284235        0.53245541
       20.99746       55.75699827        0.55496130
       21.09715       56.21461453        0.58699164
       21.19685       57.86710831        0.59262226
       21.29654       56.99900549        0.57366080
       21.39623       57.10619467        0.57424070
       21.49593       54.95393948        0.55505720
       21.59562       51.81444697        0.55164708
       21.69531       52.12699326        0.57554508
       21.79501       48.30863135        0.50652282
       21.89470       46.56888775        0.48598106
       21.99439       44.91806233        0.49738275
       22.09409       44.56829883        0.49663995
       22.19378       45.20401364        0.53123402
       22.29347       45.77691992        0.49793679
       22.39317       46.39776007        0.51434411
       22.49286       46.66130697        0.51541415
       22.59255       47.93395747        0.52865496
       22.69225       48.52158295        0.56055884
       22.79194       51.99428023        0.52145243
       22.89163       54.04056275        0.52140538
       22.99133       59.69742798        0.56376531
       23.09102       63.84835282        0.60594248
       23.19072       66.49045291        0.62009402
       23.29041       71.04175507        0.63348214
       23.39010       70.26110562        0.63650621
       23.48980       69.59187845        0.63569414
       23.58949       66.05261619        0.62724028
       23.68918       62.57487309        0.64159900
       23.78888       57.76619664        0.54892654
       23.88857       52.89871582        0.53171612
       23.98826       48.77736837        0.52161490
       24.08796       46.11413855        0.49706319
       24.18765       45.62319900        0.52971892
       24.28734       44.11610843        0.49581426
       24.38704       45.13153300        0.50995956
       24.48673       44.17177422        0.50261996
       24.58642       44.17430539        0.51926581
       24.68612       43.08303819        0.51203702
       24.78581       44.09596372        0.47761196
       24.88550       44.93894390        0.48202969
       24.98520       44.94473718        0.49989276
       25.08489       45.49585274        0.51303988
       25.18458       45.58022172        0.52431007
       25.28428       46.84341626        0.51240805
       25.38397       48.30124365        0.51792405
       25.48366       49.87931305        0.52961039
       25.58336       55.18374727        0.58115591
       25.68305       61.73752736        0.60355373
       25.78274       68.62465897        0.60124995
       25.88244       84.46825938        0.68566036
       25.98213      104.93374926        0.77296120
       26.08182      127.17202895        0.87624192
       26.18152      150.51688181        0.97977173
       26.28121      172.55813038        0.99554298
       26.38090      190.38235420        1.05733822
       26.48060      199.45261785        1.11371280
       26.58029      188.35020801        1.12719182
       26.67998      173.97235791        1.02111201
       26.77968      148.28569328        0.92799677
       26.87937      119.60146426        0.81793708
       26.97907       95.03364544        0.72027443
       27.07876       82.48366908        0.72112332
       27.17845       76.95514963        0.66504684
       27.27815       79.08972187        0.65864619
       27.37784       81.58776528        0.69531290
       27.47753       84.02534506        0.69548227
       27.57723       86.14829035        0.73796821
       27.67692       83.72847429        0.70984356
       27.77661       78.31312615        0.65466416
       27.87631       69.48741852        0.60555413
       27.97600       61.23417009        0.58048825
       28.07569       56.16258974        0.58790079
       28.17539       52.70564024        0.54490787
       28.27508       50.11167032        0.53133190
       28.37477       49.14474150        0.53861514
       28.47447       48.22029516        0.52927337
       28.57416       49.99856117        0.58284368
       28.67385       50.76816304        0.52258949
       28.77355       52.26779130        0.52081572
       28.87324       56.34714656        0.55554991
       28.97293       56.37211615        0.55697039
       29.07263       57.61902560        0.61393569
       29.17232       56.67384116        0.55556483
       29.27201       55.41416745        0.55938580
       29.37171       53.20276557        0.56363387
       29.47140       51.03821492        0.54547662
       29.57109       49.49295218        0.56945038
       29.67079       47.26600680        0.50642995
       29.77048       46.71498850        0.50458932
       29.87017       46.12251361        0.49148788
       29.96987       46.41765747        0.51701168
       30.06956       46.94748660        0.53647685
       30.16925       46.27188463        0.50141932
       30.26895       46.30353535        0.50350967
       30.36864       47.83762354        0.52028466
       30.46833       50.23842861        0.53880698
       30.56803       52.19323699        0.58032122
       30.66772       54.53627353        0.55223989
       30.76742       58.55436459        0.56115132
       30.86711       61.09119697        0.58485018
       30.96680       62.91241933        0.59711835
       31.06650       62.61637271        0.62460347
       31.16619       60.91310358        0.57906629
       31.26588       57.80178821        0.56039692
       31.36558       57.89443475        0.56820223
       31.46527       58.78494137        0.59584342
       31.56496       58.88626166        0.60594242
       31.66466       61.74475124        0.58054176
       31.76435       69.02839630        0.61394505
       31.86404       77.46721944        0.64273784
       31.96374       84.25498574        0.68661776
       32.06343       86.74606127        0.72126475
       32.16312       86.71198419        0.67770211
       32.26282       83.45464606        0.68074397
       32.36251       78.38791176        0.68559491
       32.46220       73.84557341        0.67687670
       32.56190       70.16523085        0.67109678
       32.66159       67.01860537        0.62252526
       32.76128       66.04196315        0.60401128
       32.86098       65.67458780        0.61133752
       32.96067       63.26558919        0.60728599
       33.06036       62.89829503        0.61653088
       33.16006       59.18976001        0.56288478
       33.25975       56.80081624        0.56908691
       33.35944       55.87881179        0.56741760
       33.45914       55.44655718        0.58667370
       33.55883       57.81054356        0.60069692
       33.65852       60.96887753        0.57554877
       33.75822       65.19066210        0.59452101
       33.85791       72.98502815        0.63242460
       33.95760       81.11949131        0.68731849
       34.05730       91.48253532        0.72399665
       34.15699      106.50769025        0.77060252
       34.25668      122.61747056        0.82597387
       34.35638      148.61105673        0.93646858
       34.45607      186.74539393        1.11181730
       34.55577      229.30939706        1.18103461
       34.65546      289.97397339        1.28422392
       34.75515      362.96091750        1.47838456
       34.85485      420.90520132        1.59172995
       34.95454      444.79888253        1.69285484
       35.05423      429.99894960        1.71808255
       35.15393      392.52762500        1.53443395
       35.25362      323.38759192        1.40179307
       35.35331      252.45341104        1.25873426
       35.45301      191.73644062        1.13502486
       35.55270      147.65829517        0.96375366
       35.65239      112.10699013        0.80673005
       35.75209       90.16463657        0.71574575
       35.85178       80.45813057        0.67417755
       35.95147       72.70556751        0.65512835
       36.05117       69.91232130        0.62891981
       36.15086       66.43865659        0.58917617
       36.25055       63.86892398        0.60327333
       36.35025       62.75660453        0.60959897
       36.44994       60.42114418        0.60986385
       36.54963       59.02567689        0.57850647
       36.64933       57.93801063        0.56449390
       36.74902       56.20030575        0.56160529
       36.84871       54.99257355        0.55141514
       36.94841       51.96228777        0.57935550
       37.04810       52.15057835        0.51178703
       37.14779       50.83858720        0.51555268
       37.24749       49.53477529        0.52293661
       37.34718       47.88293718        0.52710771
       37.44687       48.31457315        0.56880698
       37.54657       47.79240478        0.51642289
       37.64626       47.15680374        0.51095404
       37.74595       46.83483026        0.50121700
       37.84565       46.88500536        0.53062150
       37.94534       46.49964476        0.53830666
       38.04503       47.63227627        0.49252226
       38.14473       48.11939175        0.49992780
       38.24442       47.81255685        0.50741197
       38.34412       48.92695449        0.53674269
       38.44381       49.25215264        0.58233401
       38.54350       48.11350851        0.51296232
       38.64320       48.82455914        0.51523624
       38.74289       51.09730466        0.53419625
       38.84258       52.34348703        0.54209566
       38.94228       54.72786100        0.58163294
       39.04197       59.38366880        0.54675358
       39.14166       63.54434460        0.58876479
       39.24136       68.96031993        0.61225033
       39.34105       69.67913727        0.63696486
       39.44074       70.28901402        0.69788327
       39.54044       71.79342585        0.63080677
       39.64013       69.31021500        0.61764768
       39.73982       66.52071096        0.60725657
       39.83952       62.22076099        0.58290737
       39.93921       60.89710508        0.61132419
       40.03890       58.27775524        0.54717183
       40.13860       56.70031736        0.53887232
       40.23829       55.04871789        0.54959346
       40.33798       56.45391427        0.57405323
       40.43768       56.30993602        0.59983466
       40.53737       56.42245675        0.55729061
       40.63706       56.42803503        0.56902018
       40.73676       58.05746176        0.57642316
       40.83645       59.79385004        0.59003988
       40.93614       62.94503718        0.61586453
       41.03584       67.78244121        0.60192301
       41.13553       76.35933063        0.64048479
       41.23522       93.41765916        0.72761894
       41.33492      113.09946032        0.84064368
       41.43461      137.21293979        0.95913040
       41.53430      164.91335079        0.98883909
       41.63400      191.71085127        1.09375609
       41.73369      209.32357176        1.12079072
       41.83338      216.23157030        1.17071872
       41.93308      220.56285967        1.17264975
       42.03277      226.20143109        1.08632149
       42.13247      251.40244124        1.20810594
       42.23216      296.48147066        1.32257267
       42.33185      355.16941371        1.56599195
       42.43155      417.46527878        1.68610457
       42.53124      473.17818238        1.74981020
       42.63093      510.32212597        1.82838515
       42.73063      523.85922576        1.86356276
       42.83032      511.80423456        1.87194219
       42.93001      487.04957278        1.75280432
       43.02971      421.44523628        1.52795027
       43.12940      352.01868287        1.41268275
       43.22909      273.08524367        1.29409875
       43.32879      211.44089782        1.18940945
       43.42848      161.53462145        1.00946915
       43.52817      120.04571157        0.82743104
       43.62787       91.83053353        0.71813447
       43.72756       74.77845509        0.66158082
       43.82725       66.75825311        0.65188657
       43.92695       61.91039790        0.56882750
       44.02664       57.84332967        0.54682845
       44.12633       57.00726659        0.56302251
       44.22603       55.06863049        0.57578675
       44.32572       54.44896049        0.60336851
       44.42541       53.74212596        0.57224593
       44.52511       54.74670717        0.56213238
       44.62480       55.65541666        0.57488093
       44.72449       57.18052908        0.56483429
       44.82419       60.29262119        0.65116371
       44.92388       65.52931115        0.56665885
       45.02357       74.71943216        0.61095695
       45.12327       89.11067725        0.68881000
       45.22296      110.14725676        0.78858672
       45.32265      131.96935531        0.95802076
       45.42235      152.60802370        0.94087439
       45.52204      180.11168890        1.01596995
       45.62174      202.79831596        1.10117074
       45.72143      216.31274737        1.13926099
       45.82112      220.54136062        1.25986926
       45.92082      224.92181031        1.08086376
       46.02051      219.57160730        1.08982222
       46.12020      213.17899329        1.07637260
       46.21990      211.09529772        1.12544899
       46.31959      198.14515837        1.17534589
       46.41928      186.05717477        1.05026523
       46.51898      162.04971123        0.98214990
       46.61867      136.54574439        0.89356503
       46.71836      110.74602999        0.82207999
       46.81806       92.20384668        0.77550493
       46.91775       74.73557699        0.60684426
       47.01744       67.39497065        0.58929842
       47.11714       66.51845119        0.59873364
       47.21683       71.22894688        0.63830368
       47.31652       79.18473280        0.73516040
       47.41622       90.40874859        0.74159203
       47.51591      103.70702309        0.79734534
       47.61560      118.31681711        0.84637624
       47.71530      132.64453016        0.90773257
       47.81499      141.69043033        0.96296180
       47.91468      154.74785027        0.88204746
       48.01438      165.09755911        0.91287051
       48.11407      168.96800175        0.95859425
       48.21376      166.79175500        0.99401837
       48.31346      165.33313327        1.02476876
       48.41315      156.74342674        0.92890751
       48.51284      143.25640804        0.91578706
       48.61254      125.99734999        0.85315426
       48.71223      110.13691629        0.81019386
       48.81192       96.44741788        0.75479409
       48.91162       79.94721300        0.61441677
       49.01131       65.96711186        0.57636458
       49.11100       60.12350210        0.56952722
       49.21070       53.42559498        0.56300635
       49.31039       52.20711701        0.57267453
       49.41009       50.93640075        0.53425815
       49.50978       48.72279679        0.53312777
       49.60947       48.92769983        0.53817760
       49.70917       48.00038272        0.55272977
       49.80886       48.16169119        0.53886121
       49.90855       49.00587944        0.49522391
       50.00825       50.29492756        0.51240611
       50.10794       50.20783141        0.52360577
       50.20763       50.55480512        0.54896691
       50.30733       52.50042696        0.58619491
       50.40702       54.06887199        0.55801651
       50.50671       53.95820343        0.55907145
       50.60641       56.90651316        0.57524941
       50.70610       56.24871567        0.58841239
       50.80579       57.33223414        0.58632338
       50.90549       56.12706436        0.52292548
       51.00518       56.41900309        0.52895869
       51.10487       54.84915738        0.53897288
       51.20457       55.79856390        0.57882482
       51.30426       56.13776788        0.57759538
       51.40395       57.07404831        0.55841340
       51.50365       58.21121421        0.57050225
       51.60334       59.74595427        0.58954503
       51.70303       60.02584489        0.62755890
       51.80273       59.97345573        0.57538460
       51.90242       60.53202357        0.54013728
       52.00211       62.20822003        0.55031361
       52.10181       62.86061450        0.57076473
       52.20150       62.38380669        0.62612765
       52.30119       63.08335297        0.60659378
       52.40089       61.04677077        0.58717119
       52.50058       61.56897251        0.60087147
       52.60027       60.98352734        0.60611440
       52.69997       61.89204463        0.66928180
       52.79966       62.18007965        0.56402192
       52.89935       67.15588896        0.56605570
       52.99905       76.24244923        0.61392360
       53.09874       87.02067481        0.67821276
       53.19844       98.06927131        0.82591655
       53.29813      111.04101438        0.78259936
       53.39782      120.80488554        0.84566290
       53.49752      131.01899669        0.88605459
       53.59721      140.40222234        0.91784687
       53.69690      143.71760600        1.01940269
       53.79660      146.89488767        0.86373949
       53.89629      147.57047693        0.85648473
       53.99598      142.23608985        0.86069608
       54.09568      134.11139192        0.87166344
       54.19537      124.91586551        0.91617953
       54.29506      117.56553055        0.81564300
       54.39476      104.91393312        0.77490778
       54.49445       97.78412196        0.74780545
       54.59414       91.90188297        0.73530727
       54.69384       88.94254151        0.77132613
       54.79353       87.11615368        0.65442126
       54.89322       84.76010638        0.64293991
       54.99292       80.66581409        0.64514765
       55.09261       76.11137139        0.65120929
       55.19230       70.45533702        0.67220454
       55.29200       66.91135678        0.60935644
       55.39169       62.14272973        0.60544721
       55.49138       58.72677483        0.58605252
       55.59108       55.89972272        0.58982691
       55.69077       56.51944070        0.60873451
       55.79046       54.51258808        0.52248933
       55.89016       55.21894313        0.52467142
       55.98985       57.05850807        0.53692914
       56.08954       60.43087047        0.57110929
       56.18924       65.24731216        0.64095861
       56.28893       72.97069778        0.62116764
       56.38862       82.52797134        0.68437499
       56.48832       94.50247116        0.74638201
       56.58801      103.99918770        0.80683612
       56.68770      112.38412242        0.86681608
       56.78740      114.96578641        0.75061831
       56.88709      113.85360797        0.75429403
       56.98679      105.47932378        0.72568217
       57.08648       96.06807530        0.73304596
       57.18617       85.87330815        0.71644726
       57.28587       74.71274918        0.62325306
       57.38556       66.75695736        0.62633808
       57.48525       59.87165688        0.60387306
       57.58495       56.44048445        0.59941724
       57.68464       54.37321530        0.59326716
       57.78433       52.83335768        0.51145585
       57.88403       52.34563169        0.51498123
       57.98372       52.09245614        0.52189198
       58.08341       52.17825109        0.56475926
       58.18311       53.45312208        0.58485603
       58.28280       53.87715645        0.55309076
       58.38249       52.95270155        0.57285630
       58.48219       53.57028324        0.58869212
       58.58188       51.69276317        0.58441793
       58.68157       52.72812230        0.57849044
       58.78127       53.20610083        0.50833755
       58.88096       53.47516690        0.50212535
       58.98065       54.09384945        0.52430748
       59.08035       55.27499996        0.56565303
       59.18004       57.23738042        0.58409547
       59.27973       60.18216590        0.56536911
       59.37943       62.77614334        0.59671996
       59.47912       66.47822153        0.63963056
       59.57881       70.50963879        0.69054804
       59.67851       76.38888950        0.67076026
       59.77820       84.89213236        0.65094343
       59.87789       91.84217651        0.67540816
       59.97759      100.02693675        0.73831205
       60.07728      103.99034011        0.81572092
       60.17697      106.83790493        0.78800569
       60.27667      109.47538056        0.77586795
       60.37636      107.39744533        0.78309888
       60.47605      105.92874138        0.81116070
       60.57575      100.57890930        0.86549104
       60.67544       95.28197295        0.72310844
       60.77514       86.39921818        0.65366792
       60.87483       77.13299105        0.60471973
       60.97452       70.44310246        0.60814514
       61.07422       69.58088066        0.67890051
       61.17391       66.55673403        0.57486915
       61.27360       66.21032530        0.59369629
       61.37330       66.95336042        0.61923937
       61.47299       67.65336365        0.64990283
       61.57268       69.18455877        0.74756912
       61.67238       70.10484291        0.61342165
       61.77207       71.33043412        0.60275446
       61.87176       69.94029651        0.59006078
       61.97146       70.13029754        0.61346089
       62.07115       69.27141699        0.69041588
       62.17084       69.08292943        0.60404674
       62.27054       67.14215567        0.62071291
       62.37023       68.18844697        0.65056764
       62.46992       68.02383040        0.67203334
       62.56962       70.66674775        0.76966778
       62.66931       72.64404160        0.62886673
       62.76900       77.53026898        0.63374593
       62.86870       86.18763125        0.65455974
       62.96839       95.03631758        0.71030317
       63.06808      100.11850364        0.81198102
       63.16778      105.36199148        0.74002825
       63.26747      110.56435125        0.78512391
       63.36716      111.69619423        0.81904901
       63.46686      114.35060700        0.85391712
       63.56655      118.81847365        0.92538281
       63.66624      127.08983179        0.81452514
       63.76594      139.31479919        0.83000294
       63.86563      152.66506171        0.86801829
       63.96532      168.43675625        0.95649713
       64.06502      174.94546096        1.04540831
       64.16471      174.78819528        0.96653854
       64.26440      165.48133432        0.97761187
       64.36410      154.80644949        0.96308680
       64.46379      139.85663469        0.96583955
       64.56349      127.55782017        0.93700995
       64.66318      108.92207166        0.75559279
       64.76287       89.77520395        0.67541306
       64.86257       75.12285589        0.61542158
       64.96226       65.44244597        0.60070262
       65.06195       60.68563955        0.62500154
       65.16165       55.38429125        0.53812672
       65.26134       53.54251947        0.54131978
       65.36103       54.29805615        0.56890198
       65.46073       54.21243257        0.58712148
       65.56042       56.54989121        0.62654648
       65.66011       55.77788486        0.54250758
       65.75981       57.02392689        0.54316313
       65.85950       59.13872557        0.54981215
       65.95919       62.01875406        0.58967393
       66.05889       64.58407852        0.62268229
       66.15858       70.49935999        0.61925508
       66.25827       76.92656170        0.66967390
       66.35797       83.83027674        0.72903620
       66.45766       94.99050328        0.82603266
       66.55735      106.46144292        0.87581761
       66.65705      121.30782590        0.83121503
       66.75674      134.90108878        0.85594927
       66.85643      149.04239843        0.89141460
       66.95613      163.58017549        0.97323514
       67.05582      167.88536856        0.99400661
       67.15551      170.18323014        0.95272752
       67.25521      165.53955691        0.98558646
       67.35490      155.84823166        1.00527645
       67.45459      140.85572304        1.00560661
       67.55429      126.94618364        0.91275480
       67.65398      108.13971048        0.75291718
       67.75367       90.46827160        0.68110240
       67.85337       79.71625963        0.64609743
       67.95306       75.33118505        0.67112934
       68.05275       75.57687298        0.63654881
       68.15245       78.21656248        0.64225673
       68.25214       85.01003858        0.71144003
       68.35184       93.13036990        0.77705688
       68.45153       99.87243373        0.88679214
       68.55122      105.77204925        0.78689605
       68.65092      114.54889355        0.76432989
       68.75061      123.16552238        0.80183589
       68.85030      127.84557312        0.83328590
       68.95000      128.72305138        0.94813165
       69.04969      124.42928572        0.78671294
       69.14938      116.61110675        0.78219098
       69.24908      104.69419071        0.79000592
       69.34877       95.40578272        0.77886233
       69.44846       88.92042585        0.87130304
       69.54816       78.96265674        0.63914128
       69.64785       70.40399731        0.59419396
       69.74754       61.23714651        0.55888316
       69.84724       55.49542645        0.54538612
       69.94693       54.30073229        0.60872325
       70.04662       50.68317351        0.48331735
       70.14632       47.12617535        0.48432871
       70.24601       46.13774565        0.51303120
       70.34570       47.34021233        0.55002946
       70.44540       48.04786637        0.65297074
       70.54509       47.76773218        0.50958547
       70.64478       49.54590954        0.51840558
       70.74448       49.91563498        0.52861759
       70.84417       49.82207981        0.54801462
       70.94386       49.71580277        0.60091335
       71.04356       50.23924498        0.49991046
       71.14325       52.67844098        0.53218232
       71.24294       51.93977035        0.55593067
       71.34264       53.61770291        0.59909794
       71.44233       53.26804218        0.66630481
       71.54202       54.67478590        0.54970563
       71.64172       54.12132394        0.53196010
       71.74141       51.88202963        0.51118889
       71.84110       51.90308024        0.52927022
       71.94080       52.05693231        0.57760896
       72.04049       52.06405356        0.48892297
       72.14019       51.26734136        0.50542846
       72.23988       52.17530664        0.53358188
       72.33957       51.67841287        0.59311830
       72.43927       52.54301350        0.65844227
       72.53896       52.73822594        0.52892616
       72.63865       52.09783845        0.51379575
       72.73835       55.02319798        0.51667294
       72.83804       56.96747413        0.55533027
       72.93773       57.89923156        0.59478312
       73.03743       59.27448865        0.52249758
       73.13712       62.82984331        0.56764654
       73.23681       62.70499365        0.59575825
       73.33651       61.78705244        0.65062483
       73.43620       62.40847149        0.70833007
       73.53589       63.29389482        0.57552954
       73.63559       64.07470179        0.57005237
       73.73528       63.97444268        0.56700833
       73.83497       64.19931505        0.60220116
       73.93467       64.03231850        0.63327600
       74.03436       64.88759903        0.56426123
       74.13405       64.61925768        0.58700627
       74.23375       63.93073637        0.60811274
       74.33344       64.26594021        0.67124027
       74.43313       65.73320318        0.70460496
       74.53283       67.38957399        0.60632889
       74.63252       69.66183056        0.61223782
       74.73221       73.35932774        0.62559909
       74.83191       76.65319858        0.67874534
       74.93160       80.14613306        0.70226824
       75.03129       81.97560274        0.63160393
       75.13099       84.96829474        0.66636608
       75.23068       90.06796972        0.71621082
       75.33037       94.62852155        0.80753175
       75.43007       98.13772678        0.83468201
       75.52976      104.50687195        0.74889862
       75.62945      114.50798186        0.78448613
       75.72915      121.37041285        0.80531547
       75.82884      129.39147355        0.89640116
       75.92854      132.50343545        0.85195667
       76.02823      142.25837015        0.82922808
       76.12792      147.35777173        0.88283450
       76.22762      150.50264227        0.94180902
       76.32731      150.45216802        1.06347387
       76.42700      151.90353720        1.00880506
       76.52670      150.71912136        0.92686360
       76.62639      143.95208297        0.89338478
       76.72608      135.99862840        0.85284849
       76.82578      129.87805317        0.95939009
       76.92547      127.98815775        0.76261092
       77.02516      127.25000380        0.78803445
       77.12486      127.15742878        0.82749572
       77.22455      126.99182330        0.88048004
       77.32424      130.69558540        1.09801398
       77.42394      131.77157779        0.88047452
       77.52363      130.67925782        0.84712105
       77.62332      132.78720316        0.85029667
       77.72302      137.46256105        0.86774858
       77.82271      137.99931844        1.01970719
       77.92240      139.31177872        0.78470084
       78.02210      141.38684410        0.85330350
       78.12179      138.12446895        0.90031358
       78.22148      135.21200171        0.94152173
       78.32118      133.14060089        1.08375314
       78.42087      127.70138623        0.83459725
       78.52056      122.39675016        0.84306289
       78.62026      116.62577303        0.81573699
       78.71995      111.66391422        0.80024341
       78.81964      106.79279635        0.87346722
       78.91934       98.07187541        0.64766380
       79.01903       88.88387582        0.67496143
       79.11872       81.34102471        0.67113136
       79.21842       74.14470933        0.68271096
       79.31811       72.95748422        0.76268952
       79.41780       68.68212312        0.59985561
       79.51750       67.75313033        0.60528582
       79.61719       67.14363693        0.60426678
       79.71689       65.62979187        0.62009700
       79.81658       66.45314188        0.66153553
       79.91627       65.26095943        0.55558412
       80.01597       62.50436660        0.55860271
       80.11566       63.00139376        0.58631010
       80.21535       63.26202242        0.62806101
       80.31505       64.88882211        0.75636484
       80.41474       65.55972193        0.58426702
       80.51443       67.01592408        0.58828017
       80.61413       74.02011675        0.63952993
       80.71382       79.11177174        0.68453604
       80.81351       83.49772138        0.79081047
       80.91321       92.91653963        0.61613501
       81.01290      110.22584305        0.72649056
       81.11259      129.50620812        0.85256680
       81.21229      147.03791386        0.98528843
       81.31198      159.77037336        1.14788093
       81.41167      177.79507447        0.95066706
       81.51137      201.41987444        1.04466138
       81.61106      214.52735489        1.12784434
       81.71075      229.34713187        1.20957528
       81.81045      237.09174378        1.30429157
       81.91014      256.76399139        1.04672409
       82.00983      269.28283779        1.14776483
       82.10953      279.21489207        1.30931070
       82.20922      283.14137267        1.46709002
       82.30891      286.33825567        1.54768553
       82.40861      284.21137112        1.25342932
       82.50830      276.64169305        1.23192794
       82.60799      280.21028458        1.33634851
       82.70769      275.51768955        1.44099378
       82.80738      279.16224290        1.38671606
       82.90707      274.66323760        1.11620488
       83.00677      270.04839163        1.17857765
       83.10646      263.27550083        1.36801028
       83.20615      254.39482386        1.49494582
       83.30585      243.47712192        1.38333921
       83.40554      225.39321319        1.10362622
       83.50524      211.21886814        1.04038851
       83.60493      190.39654425        1.08480462
       83.70462      179.18199076        1.18477849
       83.80432      166.58558394        0.99649269
       83.90401      144.42661981        0.77569009
       84.00370      121.36488468        0.73896721
       84.10340      104.78760041        0.81837200
       84.20309       94.03940878        0.93956953
       84.30278       88.21269778        0.73939640
       84.40248       78.79386452        0.61578444
       84.50217       70.94365664        0.57246877
       84.60186       68.36726414        0.63517993
       84.70156       67.01901991        0.82276166
       84.80125       66.40433967        0.57012791
       84.90094       64.70845118        0.50542592
       85.00064       63.61584724        0.51622704
       85.10033       64.49472419        0.61524105
       85.20002       64.19465592        1.05268844
       85.29972       65.81359774        0.56241547
       85.39941       65.46978736        0.57187492
       85.49910       65.40091261        0.55583426
       85.59880       66.13743422        0.62860511
       85.69849       65.25017596        1.12079670
       85.79818       64.76558965        0.52640587
       85.89788       63.95175054        0.51051804
       85.99757       62.80805303        0.51974413
       86.09726       62.10313580        0.59331255
       86.19696       64.52592041        1.16204880
       86.29665       60.19414020        0.53073744
       86.39634       61.12668732        0.54420261
       86.49604       59.95499887        0.53070329
       86.59573       56.64455066        0.54930962
       86.69542       54.79527143        1.12923014
       86.79512       55.01427307        0.46970743
       86.89481       53.69916974        0.45741568
       86.99451       52.79492605        0.47004841
       87.09420       51.72974869        0.51882055
       87.19389       54.25640584        1.25917905
       87.29359       51.78353432        0.49833265
       87.39328       49.75267956        0.49488804
       87.49297       49.13435694        0.47737753
       87.59267       48.71656139        0.48465569
       87.69236       50.78749596        1.48126820
       87.79205       49.60584676        0.45594001
       87.89175       49.47895115        0.45168051
       87.99144       49.41147790        0.47033083
       88.09113       49.11742970        0.49839005
       88.19083       49.64009214        2.65158159
       88.29052       49.16816937        0.50179402
       88.39021       48.99044611        0.50420943
       88.48991       48.79563386        0.48291899
       88.58960       48.76869639        0.46753400
       88.68929       50.19282572        3.67524053
       88.78899       48.52219450        0.45011881
       88.88868       49.64086740        0.44542104
       88.98837       49.76902400        0.46388704
       89.08807       48.82172439        0.47052646
       89.18776       51.89504923        3.94923353
       89.28745       49.89800430        0.48339093
       89.38715       52.09199628        0.49916698
       89.48684       53.41164277        0.49474822
       89.58653       55.79152547        0.49558129
       89.68623       57.68466788        4.08651267
       89.78592       58.97825433        0.49537954
       89.88561       61.85235737        0.49759329
       89.98531       62.93918764        0.51478626
       90.08500       67.93169792        0.55514933
       90.18469       69.09596417        4.67044717
       90.28439       73.47714223        0.59021913
       90.38408       78.79239653        0.62200845
       90.48377       82.83910619        0.62622521
       90.58347       88.64285721        0.63822677
       90.68316       91.01128248        5.03947658
       90.78286       90.11186764        0.61611983
       90.88255       92.60819206        0.60800970
       90.98224       96.62320032        0.64299662
       91.08194       99.12820066        0.67293309
       91.18163       93.89262830        5.22140391
       91.28132       99.13387429        0.69287029
       91.38102       99.78827132        0.71368153
       91.48071       97.46071276        0.68772929
       91.58040       92.03300048        0.64573707
       91.68010       87.32280625        4.75472674
       91.77979       88.66321630        0.60808105
       91.87948       85.24222823        0.58668511
       91.97918       83.55167308        0.60297304
       92.07887       80.62602301        0.61670316
       92.17856       79.21784876        4.64678266
       92.27826       81.19742454        0.63924521
       92.37795       78.62117399        0.64365939
       92.47764       76.57265747        0.60280095
       92.57734       78.65026166        0.59287081
       92.67703       85.54027091        4.01825776
       92.77672       80.71595449        0.57906768
       92.87642       82.97267049        0.57611827
       92.97611       85.80889566        0.61207512
       93.07580       88.92045412        0.71150390
       93.17550       86.47886456        1.31885990
       93.27519       89.30243322        0.65725902
       93.37488       92.10009663        0.64914359
       93.47458       95.14396335        0.66738472
       93.57427       95.87737244        0.77464506
       93.67396       98.40752945        1.06104851
       93.77366       97.21891868        0.65318656
       93.87335       95.79952563        0.61919938
       93.97304       93.99334075        0.63897636
       94.07274       90.02290450        0.81131977
       94.17243       92.76115838        0.94014622
       94.27212       89.71943772        0.68830123
       94.37182       90.68515178        0.67452968
       94.47151       89.64549543        0.64215380
       94.57121       88.78724798        0.84330124
       94.67090       88.71703852        0.85272019
       94.77059       86.67588260        0.65498169
       94.87029       82.52755287        0.58076009
       94.96998       75.59304616        0.56219843
       95.06967       72.21277940        0.63307133
       95.16937       71.43474600        0.86181766
       95.26906       67.54194101        0.64694785
       95.36875       64.43775741        0.57308414
       95.46845       63.13914746        0.54505949
       95.56814       60.06437722        0.61140929
       95.66783       59.93303662        0.68612366
       95.76753       57.58631828        0.55555179
       95.86722       55.39372590        0.46330284
       95.96691       53.29796837        0.47121235
       96.06661       53.00941113        0.60196644
       96.16630       51.59486769        0.63315758
       96.26599       51.06105109        0.56561513
       96.36569       50.81823841        0.50628528
       96.46538       49.53301278        0.48228424
       96.56507       46.65427984        0.57741929
       96.66477       47.23681350        0.56621292
       96.76446       47.43372323        0.50704914
       96.86415       46.78632404        0.43614642
       96.96385       47.54809884        0.45418369
       97.06354       47.95632712        0.61682389
       97.16323       48.00458806        0.59008285
       97.26293       48.30993896        0.55617253
       97.36262       48.39955200        0.51551896
       97.46231       48.28713833        0.47370803
       97.56201       49.55872298        0.61069020
       97.66170       50.94794517        0.55628296
       97.76139       51.13785703        0.50633417
       97.86109       53.64078308        0.46912669
       97.96078       54.32520734        0.48248022
       98.06047       56.45400532        0.68341225
       98.16017       57.53123701        0.61341149
       98.25986       56.29747503        0.57947665
       98.35956       58.80238779        0.55935902
       98.45925       61.64080623        0.53481869
       98.55894       65.33169954        0.71868897
       98.65864       66.36540010        0.62161415
       98.75833       66.89539513        0.58318232
       98.85802       69.93835400        0.55706606
       98.95772       71.74096054        0.56060740
       99.05741       72.73391134        0.78376170
       99.15710       72.88229039        0.67473702
       99.25680       75.42081199        0.66526829
       99.35649       80.03986878        0.65324941
       99.45618       81.36891175        0.61394237
       99.55588       83.77421037        0.83271961
       99.65557       85.12772106        0.69267178
       99.75526       86.76049849        0.65559871
       99.85496       85.80395900        0.62043308
       99.95465       85.68588324        0.60782910
      100.05434       86.21602737        0.86865419
      100.15404       85.78999272        0.72979842
      100.25373       86.01533840        0.72203264
      100.35342       85.94720417        0.71891731
      100.45312       85.58134771        0.65457425
      100.55281       84.97722668        0.85659527
      100.65250       84.61593189        0.69630620
      100.75220       82.07965230        0.63496006
      100.85189       81.12721073        0.60307689
      100.95158       80.16987772        0.58339447
      101.05128       79.57674345        0.82857876
      101.15097       78.05159601        0.67803010
      101.25066       78.35639127        0.67124348
      101.35036       78.33231539        0.67695561
      101.45005       75.73872012        0.62567796
      101.54974       72.90325552        0.76420312
      101.64944       73.10122207        0.62436179
      101.74913       74.12709432        0.59250181
      101.84882       75.51874944        0.58228137
      101.94852       77.97617588        0.62351850
      102.04821       76.96218958        0.74597967
      102.14791       77.78781532        0.67599134
      102.24760       78.27059446        0.67241526
      102.34729       77.16746376        0.66480911
      102.44699       78.99124232        0.68452827
      102.54668       78.58382502        0.71638427
      102.64637       81.43539064        0.65164325
      102.74607       82.71629859        0.62560350
      102.84576       83.93731778        0.61836689
      102.94545       85.36889405        0.71044406
      103.04515       84.09241371        0.74628714
      103.14484       83.05662188        0.69282948
      103.24453       84.34269714        0.68755324
      103.34423       83.86483139        0.67999710
      103.44392       84.41087072        0.73905602
      103.54361       85.67251490        0.72345600
      103.64331       86.29366308        0.66099095
      103.74300       86.68885147        0.63198129
      103.84269       85.86366677        0.61799100
      103.94239       84.95914050        0.73861530
      104.04208       84.13393417        0.71098450
      104.14177       82.92575362        0.68659742
      104.24147       83.11817850        0.68706665
      104.34116       83.76182091        0.69408048
      104.44085       82.30638864        0.78123299
      104.54055       82.00840597        0.70600333
      104.64024       79.67840978        0.65388199
      104.73993       76.92308827        0.61280196
      104.83963       73.84023013        0.57813728
      104.93932       73.18380705        0.69767184
      105.03901       73.25886572        0.65772528
      105.13871       71.66088878        0.62619206
      105.23840       70.62943395        0.62120174
      105.33809       70.51747229        0.62436125
      105.43779       68.25398602        0.71443644
      105.53748       68.51227793        0.64193944
      105.63717       67.08587076        0.58211202
      105.73687       65.19046810        0.54592609
      105.83656       62.35747174        0.52002093
      105.93626       61.10646191        0.65221114
      106.03595       59.72527062        0.58425830
      106.13564       59.63024001        0.56423669
      106.23534       58.44986208        0.56538775
      106.33503       57.20788739        0.56487792
      106.43472       55.89345788        0.65994788
      106.53442       55.92726516        0.57420275
      106.63411       54.93140568        0.51685242
      106.73380       53.90479454        0.48789735
      106.83350       54.67885201        0.48411660
      106.93319       57.10146405        0.64159008
      107.03288       56.99472142        0.56808962
      107.13258       57.60286319        0.55440213
      107.23227       56.77192234        0.55829639
      107.33196       57.58019966        0.56079188
      107.43166       57.63502898        0.67414279
      107.53135       57.51800398        0.58104698
      107.63104       59.14531664        0.53666241
      107.73074       60.41776043        0.52050337
      107.83043       60.78180127        0.51550233
      107.93012       62.44080277        0.69138362
      108.02982       63.17464601        0.60876275
      108.12951       62.93975016        0.57780771
      108.22920       62.34626689        0.56579793
      108.32890       63.66071973        0.56640901
      108.42859       65.06594627        0.72692808
      108.52828       64.86918380        0.61566157
      108.62798       65.84035121        0.56251253
      108.72767       65.97052450        0.54046429
      108.82736       64.89618372        0.54775499
      108.92706       64.63362635        0.69229155
      109.02675       63.69812773        0.60114294
      109.12644       63.36108595        0.58513535
      109.22614       64.45154878        0.59072473
      109.32583       64.22538272        0.64255076
      109.42552       63.90909109        0.67606289
      109.52522       65.28138638        0.61660147
      109.62491       64.93834256        0.58491440
      109.72461       62.41726006        0.54801017
      109.82430       61.43323071        0.50777603
      109.92399       59.63590050        0.65027170
      110.02369       61.50228749        0.57847670
      110.12338       60.01074395        0.56754939
      110.22307       58.63614428        0.55668064
      110.32277       59.14836947        0.57098944
      110.42246       59.84883925        0.69844142
      110.52215       57.43914373        0.57928202
      110.62185       56.82475743        0.54296339
      110.72154       55.25685838        0.49938585
      110.82123       55.45610394        0.51669370
      110.92093       55.70991415        0.60403751
      111.02062       55.94471966        0.55924009
      111.12031       55.31656262        0.56018276
      111.22001       56.59757781        0.55614050
      111.31970       57.86735432        0.61043334
      111.41939       57.53933999        0.62982844
      111.51909       58.14452440        0.57455020
      111.61878       59.56951773        0.54796351
      111.71847       60.44936774        0.51364674
      111.81817       64.55828469        0.57653155
      111.91786       65.39618493        0.61074097
      112.01755       66.75490724        0.60265841
      112.11725       68.78421960        0.61659928
      112.21694       71.62889804        0.62670182
      112.31663       71.91480892        0.69200528
      112.41633       73.60982316        0.68798397
      112.51602       76.59711337        0.64660818
      112.61571       79.37011752        0.62817978
      112.71541       82.38732546        0.60344879
      112.81510       85.32973491        0.68895492
      112.91479       87.18114964        0.70960360
      113.01449       87.87646525        0.69772885
      113.11418       87.89112953        0.69545658
      113.21387       89.68408583        0.69953336
      113.31357       89.71887662        0.77704114
      113.41326       91.03365917        0.74401756
      113.51296       91.15508549        0.70034155
      113.61265       93.41146733        0.68433601
      113.71234       93.22586110        0.65298852
      113.81204       92.24908773        0.74403416
      113.91173       89.77815762        0.71096102
      114.01142       90.08819950        0.70505154
      114.11112       90.42892866        0.70605020
      114.21081       87.99905811        0.70124556
      114.31050       89.64474972        0.80286808
      114.41020       89.02230592        0.73923558
      114.50989       88.68625851        0.69069841
      114.60958       87.85326798        0.66515825
      114.70928       86.68513999        0.63712408
      114.80897       88.21655240        0.72916259
      114.90866       85.89978393        0.67838737
      115.00836       87.59926564        0.68206190
      115.10805       90.04393622        0.69557145
      115.20774       89.97872902        0.70583401
      115.30744       89.05025770        0.80610621
      115.40713       90.04784668        0.73434199
      115.50682       90.63440413        0.69559965
      115.60652       90.48614717        0.66983371
      115.70621       91.08237216        0.64594175
      115.80590       93.55796771        0.76403891
      115.90560       93.72788678        0.69314803
      116.00529       95.94704885        0.70939972
      116.10498       97.21234624        0.72167895
      116.20468       98.39001450        0.74285590
      116.30437       99.68777334        0.89154818
      116.40406      102.80138662        0.78895308
      116.50376      102.22611260        0.74339458
      116.60345      103.67042799        0.71880258
      116.70314      108.58659794        0.71392868
      116.80284      113.41079110        0.86763464
      116.90253      115.24840216        0.78702440
      117.00222      118.63849341        0.79265572
      117.10192      122.45082056        0.82740086
      117.20161      124.46857519        0.84463358
      117.30131      123.68290090        1.00737767
      117.40100      129.04647688        0.86585698
      117.50069      134.98107596        0.84189617
      117.60039      139.19448653        0.81875705
      117.70008      143.15060062        0.80492182
      117.79977      148.69578553        1.00620717
      117.89947      151.65812967        0.88383519
      117.99916      154.69986574        0.90376005
      118.09885      158.00043368        0.93098927
      118.19855      161.02818947        0.98490388
      118.29824      166.61491691        1.09930868
      118.39793      166.68369870        0.99830437
      118.49763      170.49964235        0.95336208
      118.59732      175.16193965        0.93367590
      118.69701      178.08071899        0.98119536
      118.79671      179.08227579        1.06261566
      118.89640      177.53683993        0.98619684
      118.99609      177.54841758        0.98517566
      119.09579      178.82666279        1.00045253
      119.19548      179.16218337        1.09424200
      119.29517      178.43619102        1.13439216
      119.39487      178.85948532        1.04411685
      119.49456      179.06088406        0.98452705
      119.59425      172.96087099        0.93875119
      119.69395      169.85796964        0.98096182
      119.79364      164.77953104        0.97562452
      119.89333      162.00951768        0.93582513
      119.99303      157.10560271        0.89902615
      120.09272      154.15498342        0.91039018
      120.19241      149.73080718        1.00775763
      120.29211      146.61099660        0.98651885
      120.39180      144.13854832        0.93282435
      120.49149      138.17873604        0.84859654
      120.59119      131.83582545        0.80366947
      120.69088      127.58277175        0.85047361
      120.79057      126.23883037        0.82763318
      120.89027      122.81884641        0.80099709
      120.98996      121.77046875        0.79130107
      121.08966      120.11518676        0.79156568
      121.18935      120.91193818        0.91046656
      121.28904      117.68802668        0.87499745
      121.38874      114.97035791        0.81744929
      121.48843      116.80727585        0.77847402
      121.58812      115.92451546        0.73954626
      121.68782      116.44180927        0.82118980
      121.78751      113.73349682        0.77300541
      121.88720      113.43697732        0.76208836
      121.98690      113.22985187        0.76707014
      122.08659      111.62396728        0.77665125
      122.18628      109.78389139        0.89322499
      122.28598      109.11687449        0.83732876
      122.38567      107.28406613        0.79492697
      122.48536      107.32022336        0.75207926
      122.58506      107.90138396        0.71429497
      122.68475      107.40425663        0.80749001
      122.78444      106.28897274        0.75623925
      122.88414      105.50175976        0.74693781
      122.98383      104.87408959        0.75989041
      123.08352      102.40934302        0.74417426
      123.18322      101.83901831        0.86543840
      123.28291      104.16007775        0.79577907
      123.38260      102.86058866        0.76324106
      123.48230      102.61379247        0.73470741
      123.58199      100.94555243        0.68091258
      123.68168      100.58099643        0.77553933
      123.78138       96.10860363        0.68344036
      123.88107       94.81171069        0.66297166
      123.98076       91.50187335        0.66296945
      124.08046       90.59791781        0.65263499
      124.18015       90.87573432        0.73985934
      124.27984       89.21115529        0.65657948
      124.37954       86.05655860        0.60818760
      124.47923       84.51203495        0.58823686
      124.57893       80.92897126        0.61289999
