        5.04651       60.99035374        1.20140615
        5.14621       59.72213515        1.14550492
        5.24590       58.66139941        1.11880072
        5.34559       57.61392823        1.01673738
        5.44529       57.69678530        1.10692885
        5.54498       55.55512790        0.91334035
        5.64467       55.89918039        0.90821067
        5.74437       56.59639190        0.82502714
        5.84406       56.50597220        0.83424500
        5.94375       55.13273275        0.82274511
        6.04345       53.68543321        0.78869000
        6.14314       55.26199269        0.73286119
        6.24283       55.66584562        0.75986772
        6.34253       54.52740349        0.71716614
        6.44222       55.81241765        0.76416658
        6.54191       54.11059377        0.71259764
        6.64161       55.13573016        0.68155698
        6.74130       53.89245630        0.67640470
        6.84099       54.03934936        0.67243909
        6.94069       54.42330158        0.68503081
        7.04038       55.13299529        0.63652079
        7.14007       54.15556063        0.62943856
        7.23977       54.67427642        0.62144424
        7.33946       53.43007312        0.62360170
        7.43915       55.05207612        0.62491238
        7.53885       53.21133887        0.60284808
        7.63854       53.44000681        0.57744826
        7.73823       54.18627443        0.60384909
        7.83793       53.89753666        0.58276364
        7.93762       54.44540587        0.61104633
        8.03732       54.77226075        0.54967602
        8.13701       54.10075963        0.54376686
        8.23670       53.76279154        0.54968236
        8.33640       53.89087515        0.55050011
        8.43609       53.84811493        0.57529243
        8.53578       54.99350787        0.54162790
        8.63548       53.68527503        0.52887592
        8.73517       54.82510257        0.52437803
        8.83486       54.54658995        0.52429283
        8.93456       54.14857486        0.51965767
        9.03425       54.62400894        0.50669205
        9.13394       55.47744247        0.51167202
        9.23364       53.65765301        0.51039633
        9.33333       54.45521313        0.52471683
        9.43302       54.23212874        0.52381551
        9.53272       54.54356100        0.50759665
        9.63241       54.80152082        0.52320020
        9.73210       54.39618295        0.52018029
        9.83180       55.61708034        0.54818918
        9.93149       55.13751719        0.54186860
       10.03118       55.08340806        0.52112035
       10.13088       55.42193446        0.51022376
       10.23057       55.56890584        0.53502982
       10.33026       55.49419521        0.55266473
       10.42996       54.83851856        0.54180107
       10.52965       55.39219770        0.52740172
       10.62934       55.27563476        0.52810163
       10.72904       55.24875741        0.53577910
       10.82873       56.50905449        0.53924285
       10.92842       56.47419371        0.54810912
       11.02812       55.90573776        0.51950362
       11.12781       57.87058694        0.54769962
       11.22750       56.04173785        0.54417306
       11.32720       56.72879157        0.56229193
       11.42689       57.13307041        0.54475214
       11.52658       57.48518918        0.53994897
       11.62628       57.69398754        0.54681775
       11.72597       56.88235745        0.55441218
       11.82567       58.01595422        0.57559230
       11.92536       59.31939709        0.54479054
       12.02505       59.87650874        0.54994424
       12.12475       60.65876189        0.55309627
       12.22444       63.93564935        0.60245709
       12.32413       68.49148798        0.63352651
       12.42383       73.39026495        0.62292579
       12.52352       79.31506831        0.64413968
       12.62321       86.17999041        0.69114696
       12.72291       98.16344963        0.71902312
       12.82260      113.24653818        0.84132657
       12.92229      121.17907752        0.79114670
       13.02199      140.47090846        0.84734771
       13.12168      172.75434243        0.96057967
       13.22137      208.45412353        1.09507401
       13.32107      243.02031438        1.22650550
       13.42076      281.26548943        1.27713038
       13.52045      316.95107875        1.37913575
       13.62015      335.98129213        1.38006606
       13.71984      330.59059263        1.42594329
       13.81953      311.08179108        1.40332221
       13.91923      281.87805065        1.25022738
       14.01892      227.19218695        1.08475976
       14.11861      178.26877757        0.99584341
       14.21831      141.10755530        0.88222860
       14.31800      112.25579284        0.82493028
       14.41769       88.23770992        0.70181814
       14.51739       75.28432803        0.63123912
       14.61708       65.66363274        0.59013456
       14.71677       57.85986055        0.56229071
       14.81647       56.85242512        0.58381308
       14.91616       53.04057090        0.51823982
       15.01585       52.39304781        0.52429658
       15.11555       52.71410811        0.53202612
       15.21524       51.23838489        0.54046641
       15.31493       50.83834835        0.55129651
       15.41463       51.23968139        0.53592029
       15.51432       50.99375795        0.51804510
       15.61402       50.24942131        0.52720419
       15.71371       49.88408726        0.52164297
       15.81340       49.30246520        0.53943410
       15.91310       50.18442961        0.52889302
       16.01279       50.32096607        0.50711029
       16.11248       50.14296420        0.51979027
       16.21218       50.05846940        0.53373670
       16.31187       49.18493939        0.53027245
       16.41156       50.56835119        0.52779310
       16.51126       51.03936926        0.53925518
       16.61095       51.33967302        0.52151984
       16.71064       51.79532961        0.54043320
       16.81034       53.80727503        0.55268940
       16.91003       54.91820595        0.54236735
       17.00972       55.89440327        0.52536567
       17.10942       59.42144497        0.57287892
       17.20911       62.71730651        0.59408114
       17.30880       65.45652616        0.61246430
       17.40850       70.67961075        0.63684120
       17.50819       75.12657732        0.63800927
       17.60788       76.77804336        0.66519281
       17.70758       77.17040150        0.66968274
       17.80727       76.15453646        0.67335618
       17.90696       72.85441135        0.61543360
       18.00666       69.74890546        0.61242371
       18.10635       65.97358710        0.57897360
       18.20604       61.76701694        0.61412615
       18.30574       59.00489289        0.57179735
       18.40543       57.02351230        0.54802111
       18.50512       55.77472827        0.55897242
       18.60482       55.36207976        0.54812750
       18.70451       54.59659666        0.57514465
       18.80420       53.04704083        0.53244201
       18.90390       51.10959318        0.51687536
       19.00359       50.74922607        0.50155515
       19.10328       50.05210540        0.52691856
       19.20298       50.66704737        0.54670016
       19.30267       49.22061640        0.51732908
       19.40237       48.77010434        0.50908810
       19.50206       48.28142615        0.51922219
       19.60175       47.63136921        0.50987458
       19.70145       47.93170273        0.53636178
       19.80114       47.45122003        0.50610855
       19.90083       48.33842944        0.49363144
       20.00053       47.89901769        0.50006340
       20.10022       48.30903776        0.50596508
       20.19991       49.21136845        0.54604707
       20.29961       49.73046152        0.52015098
       20.39930       51.09719058        0.54330678
       20.49899       52.57242914        0.54165852
       20.59869       54.45715302        0.56154533
       20.69838       54.58125504        0.58292851
       20.79807       55.13858400        0.55888256
       20.89777       55.77934132        0.54946462
       20.99746       57.91977206        0.56568463
       21.09715       59.02808078        0.60163559
       21.19685       58.44467438        0.59547462
       21.29654       60.77545479        0.59259078
       21.39623       58.67457072        0.58207715
       21.49593       57.22144889        0.56646568
       21.59562       56.02397797        0.57388520
       21.69531       53.78480049        0.58463897
       21.79501       50.89421018        0.51999696
       21.89470       49.81763089        0.50279737
       21.99439       47.74540376        0.51291372
       22.09409       46.77925063        0.50887021
       22.19378       47.46474940        0.54442556
       22.29347       46.81271499        0.50349583
       22.39317       46.65333014        0.51564487
       22.49286       46.91789491        0.51671533
       22.59255       47.74708801        0.52746649
       22.69225       47.47494105        0.55423229
       22.79194       46.78220351        0.49404784
       22.89163       46.54430878        0.48313504
       22.99133       46.88378820        0.49836977
       23.09102       46.86908616        0.51749575
       23.19072       47.54712435        0.52251654
       23.29041       46.91977916        0.51253936
       23.39010       47.51034974        0.52121153
       23.48980       47.71494999        0.52424762
       23.58949       47.16484764        0.52815589
       23.68918       46.71400151        0.55268551
       23.78888       45.38452974        0.48538123
       23.88857       46.04665642        0.49536393
       23.98826       46.18939615        0.50722594
       24.08796       46.25214191        0.49768632
       24.18765       46.57003365        0.53513357
       24.28734       45.38986912        0.50289911
       24.38704       45.66042683        0.51285005
       24.48673       45.97413233        0.51279644
       24.58642       45.30610117        0.52583982
       24.68612       46.49284812        0.53208823
       24.78581       46.22026772        0.48903196
       24.88550       46.33220042        0.48943367
       24.98520       47.23253785        0.51252569
       25.08489       47.82401631        0.52607644
       25.18458       48.02720069        0.53828614
       25.28428       47.54855984        0.51617674
       25.38397       49.41092682        0.52380188
       25.48366       50.55034149        0.53308183
       25.58336       54.17435431        0.57556328
       25.68305       57.88487986        0.58387471
       25.78274       67.72685687        0.59705427
       25.88244       81.28904112        0.67209004
       25.98213      104.22786596        0.77006409
       26.08182      135.19900975        0.90446523
       26.18152      161.81515473        1.01754293
       26.28121      187.03015751        1.03868155
       26.38090      201.32701336        1.08899967
       26.48060      200.70067705        1.11714071
       26.58029      181.95038694        1.10642086
       26.67998      160.46616891        0.97821808
       26.77968      130.53468961        0.86786023
       26.87937       98.49025475        0.73939303
       26.97907       81.08194172        0.66354340
       27.07876       72.79703088        0.67615276
       27.17845       74.01968503        0.65173873
       27.27815       75.92383804        0.64480853
       27.37784       81.80262679        0.69607114
       27.47753       86.64014727        0.70635279
       27.57723       87.51573160        0.74378193
       27.67692       86.10852586        0.71996738
       27.77661       81.12033468        0.66644120
       27.87631       72.17259610        0.61726675
       27.97600       65.24048943        0.59943400
       28.07569       57.90954690        0.59699712
       28.17539       53.61026765        0.54950513
       28.27508       52.20337139        0.54236096
       28.37477       52.47800960        0.55675613
       28.47447       52.04289470        0.55007142
       28.57416       52.72423657        0.59864445
       28.67385       53.46048205        0.53637598
       28.77355       56.06826433        0.53963101
       28.87324       58.17133515        0.56450022
       28.97293       59.69027150        0.57330607
       29.07263       60.40091832        0.62871839
       29.17232       59.81525717        0.57091432
       29.27201       57.34459872        0.56908582
       29.37171       56.06641761        0.57873820
       29.47140       53.09097875        0.55638897
       29.57109       50.56691967        0.57555046
       29.67079       49.86611686        0.52027001
       29.77048       49.43596629        0.51918444
       29.87017       48.74969926        0.50538863
       29.96987       48.74322701        0.52987848
       30.06956       49.01182647        0.54819608
       30.16925       49.96019169        0.52121601
       30.26895       49.66000211        0.52160566
       30.36864       50.73805661        0.53595319
       30.46833       52.96710014        0.55336155
       30.56803       55.10510488        0.59643303
       30.66772       57.05616840        0.56495154
       30.76742       62.32574870        0.57916576
       30.86711       64.36014672        0.60047474
       30.96680       65.33451370        0.60859847
       31.06650       64.82966513        0.63562206
       31.16619       63.90259847        0.59325598
       31.26588       61.44557430        0.57800240
       31.36558       59.46555133        0.57586501
       31.46527       60.43220789        0.60414682
       31.56496       62.82863102        0.62615919
       31.66466       67.17098231        0.60592241
       31.76435       75.46240836        0.64246327
       31.86404       82.79471074        0.66490555
       31.96374       86.91545765        0.69750978
       32.06343       88.88433287        0.73017684
       32.16312       87.12521330        0.67918547
       32.26282       80.14671479        0.66656247
       32.36251       72.55774434        0.65877186
       32.46220       66.87975375        0.64321885
       32.56190       60.30990881        0.62096155
       32.66159       57.32971856        0.57465473
       32.76128       55.29735123        0.55152506
       32.86098       53.09945886        0.54836210
       32.96067       52.60636358        0.55260168
       33.06036       53.85293531        0.56943632
       33.16006       53.89571247        0.53648820
       33.25975       55.84993562        0.56406129
       33.35944       55.85176017        0.56712763
       33.45914       57.39888293        0.59695717
       33.55883       59.05442279        0.60709537
       33.65852       61.82186630        0.57949350
       33.75822       66.86622263        0.60212847
       33.85791       73.66794175        0.63528427
       33.95760       82.62894353        0.69368184
       34.05730       91.40049674        0.72347283
       34.15699      102.21287492        0.75415727
       34.25668      114.46642908        0.79673956
       34.35638      139.31182083        0.90504683
       34.45607      175.32388071        1.07496686
       34.55577      221.46133983        1.15886892
       34.65546      293.05166177        1.29134222
       34.75515      386.01030867        1.52973371
       34.85485      449.23028146        1.65118042
       34.95454      470.98207038        1.74851341
       35.05423      446.38684984        1.75450158
       35.15393      384.20431819        1.51575685
       35.25362      299.75755927        1.34421304
       35.35331      218.68058254        1.16478979
       35.45301      157.10076703        1.02124022
       35.55270      118.74523232        0.85983284
       35.65239       91.80047364        0.72730569
       35.75209       82.56127933        0.68383129
       35.85178       78.50086111        0.66552831
       35.95147       73.71332276        0.65959420
       36.05117       69.99314057        0.62912646
       36.15086       64.30687941        0.57928077
       36.25055       59.19297961        0.58014772
       36.35025       56.09489082        0.57552038
       36.44994       54.99883558        0.58115580
       36.54963       52.93414705        0.54711979
       36.64933       52.18138500        0.53504095
       36.74902       52.08178297        0.54010690
       36.84871       52.92954839        0.54063666
       36.94841       52.33175200        0.58129491
       37.04810       52.70250488        0.51440121
       37.14779       50.96036983        0.51604405
       37.24749       51.09427654        0.53110776
       37.34718       50.43070678        0.54104531
       37.44687       50.04833931        0.57894379
       37.54657       49.32459498        0.52463628
       37.64626       49.70338378        0.52466210
       37.74595       51.18133161        0.52421561
       37.84565       49.81016753        0.54705689
       37.94534       49.42992688        0.55514438
       38.04503       49.83817080        0.50385733
       38.14473       49.27457866        0.50586048
       38.24442       50.69946041        0.52262972
       38.34412       51.68824545        0.55179930
       38.44381       51.54750077        0.59582869
       38.54350       52.10209862        0.53402959
       38.64320       51.37848664        0.52863445
       38.74289       53.48871353        0.54663593
       38.84258       55.17523655        0.55669216
       38.94228       58.58250949        0.60201042
       39.04197       61.40559884        0.55603153
       39.14166       66.65561838        0.60317139
       39.24136       70.72397683        0.62005552
       39.34105       71.91897384        0.64720122
       39.44074       73.10616090        0.71188975
       39.54044       72.92410023        0.63571140
       39.64013       70.55498197        0.62313911
       39.73982       66.54330213        0.60720210
       39.83952       61.61370230        0.57984294
       39.93921       59.82914464        0.60566819
       40.03890       56.80272371        0.53992223
       40.13860       56.35490077        0.53705430
       40.23829       56.38065001        0.55618391
       40.33798       56.70179538        0.57518481
       40.43768       56.85433189        0.60262481
       40.53737       56.64342853        0.55825464
       40.63706       58.33575610        0.57859727
       40.73676       60.71281201        0.58957290
       40.83645       60.85422193        0.59520082
       40.93614       64.21297915        0.62200880
       41.03584       67.99824251        0.60274418
       41.13553       75.44578262        0.63637475
       41.23522       88.73616162        0.70839957
       41.33492      106.27966756        0.81374846
       41.43461      125.19938279        0.91408826
       41.53430      148.63198430        0.93596349
       41.63400      172.59677894        1.03424918
       41.73369      191.30578577        1.06801835
       41.83338      200.21558275        1.12327970
       41.93308      198.01797688        1.10671104
       42.03277      201.66198679        1.02132232
       42.13247      212.28248368        1.10279298
       42.23216      257.26218148        1.22394030
       42.33185      332.32505898        1.50898701
       42.43155      423.62621453        1.69971254
       42.53124      524.06443101        1.85520482
       42.63093      610.75744752        2.02962807
       42.73063      651.11483140        2.11620208
       42.83032      623.24100827        2.09940164
       42.93001      550.83408592        1.88146101
       43.02971      426.88080441        1.53869641
       43.12940      298.69432122        1.29002926
       43.22909      203.82166428        1.10517846
       43.32879      143.75375370        0.96950009
       43.42848      105.80731322        0.80913683
       43.52817       83.92108514        0.68739256
       43.62787       72.54094134        0.63599151
       43.72756       67.20890463        0.62622025
       43.82725       63.29538438        0.63420742
       43.92695       61.58439575        0.56714625
       44.02664       59.00216676        0.55224383
       44.12633       57.42735348        0.56498497
       44.22603       58.22395049        0.59221992
       44.32572       57.48942783        0.62014874
       44.42541       56.70004187        0.58792892
       44.52511       57.24092347        0.57489142
       44.62480       57.86890032        0.58627121
       44.72449       59.75431975        0.57751127
       44.82419       62.57296956        0.66345000
       44.92388       66.85503754        0.57234247
       45.02357       72.81863539        0.60277997
       45.12327       79.46151266        0.64920242
       45.22296       93.03931311        0.72246247
       45.32265      111.93964076        0.87911218
       45.42235      131.19852031        0.86902287
       45.52204      164.56130298        0.96836353
       45.62174      210.44325689        1.12286544
       45.72143      261.55757353        1.26171158
       45.82112      292.54854183        1.46770739
       45.92082      315.30965553        1.29822554
       46.02051      304.34833924        1.30047368
       46.12020      266.42324840        1.21348920
       46.21990      217.74681711        1.14400563
       46.31959      170.38868329        1.08463674
       46.41928      131.51536461        0.87476085
       46.51898       98.38830190        0.75690634
       46.61867       75.32472934        0.65661927
       46.71836       66.17486781        0.63047192
       46.81806       61.61974140        0.63047914
       46.91775       56.54161439        0.52603964
       47.01744       56.95510745        0.54061645
       47.11714       59.16868847        0.56382221
       47.21683       61.31974730        0.59107383
       47.31652       66.07195822        0.66984540
       47.41622       73.87233922        0.66827249
       47.51591       86.65622345        0.72654564
       47.61560      105.11898784        0.79578125
       47.71530      129.62100090        0.89663824
       47.81499      156.77273072        1.01522532
       47.91468      186.63720296        0.97359121
       48.01438      215.01746688        1.05016209
       48.11407      225.36745981        1.11716051
       48.21376      213.74996333        1.13377666
       48.31346      193.24073575        1.11275482
       48.41315      162.22950945        0.94565016
       48.51284      128.81367670        0.86606224
       48.61254      101.68701747        0.76308579
       48.71223       79.59537000        0.68499126
       48.81192       67.03789202        0.62594433
       48.91162       59.52913407        0.52818065
       49.01131       55.63339028        0.52821442
       49.11100       52.77905911        0.53278957
       49.21070       52.08639592        0.55562902
       49.31039       51.57045553        0.56895844
       49.41009       50.05819164        0.52941149
       49.50978       50.40634963        0.54227521
       49.60947       49.93033869        0.54361451
       49.70917       49.34610449        0.56040679
       49.80886       48.85065842        0.54262295
       49.90855       49.99699986        0.50016025
       50.00825       50.54543179        0.51356689
       50.10794       50.36952445        0.52432405
       50.20763       50.41295312        0.54803753
       50.30733       51.60611546        0.58093675
       50.40702       52.54037280        0.54978123
       50.50671       53.67116197        0.55740719
       50.60641       54.25859318        0.56130036
       50.70610       55.75944939        0.58564321
       50.80579       56.40834166        0.58133325
       50.90549       55.68725333        0.52069526
       51.00518       55.36643823        0.52376722
       51.10487       55.72909461        0.54321822
       51.20457       54.89498289        0.57387739
       51.30426       55.68086110        0.57504246
       51.40395       57.46782665        0.56022663
       51.50365       58.46119335        0.57159965
       51.60334       59.60347863        0.58867171
       51.70303       60.46105641        0.62971101
       51.80273       60.01482926        0.57543523
       51.90242       61.25718658        0.54328780
       52.00211       61.71458289        0.54793446
       52.10181       62.08474823        0.56700576
       52.20150       63.67914437        0.63256955
       52.30119       62.35576945        0.60285063
       52.40089       61.19984415        0.58776733
       52.50058       60.89162486        0.59732945
       52.60027       58.86565268        0.59512129
       52.69997       56.92957209        0.64116948
       52.79966       58.14285010        0.54487948
       52.89935       59.37871327        0.53141540
       52.99905       64.21396457        0.56210256
       53.09874       75.30262166        0.62946512
       53.19844       89.26655638        0.78658704
       53.29813      104.16097929        0.75688310
       53.39782      124.90333473        0.86026313
       53.49752      143.85914374        0.93022985
       53.59721      162.16225510        0.98976557
       53.69690      170.98081784        1.11669825
       53.79660      177.52969778        0.95417493
       53.89629      170.52694155        0.92400370
       53.99598      154.47611200        0.89858047
       54.09568      135.13358526        0.87490475
       54.19537      118.63954055        0.89168698
       54.29506      105.67682350        0.77154188
       54.39476       94.71442186        0.73480526
       54.49445       88.27250893        0.70916460
       54.59414       84.08623996        0.70222098
       54.69384       81.38094253        0.73666082
       54.79353       79.90518543        0.62581249
       54.89322       77.17048267        0.61251978
       54.99292       75.21583886        0.62222576
       55.09261       71.03954660        0.62842346
       55.19230       67.67893428        0.65833803
       55.29200       63.97153702        0.59536035
       55.39169       61.48732996        0.60201891
       55.49138       58.68187558        0.58566920
       55.59108       57.41549381        0.59776926
       55.69077       55.38279448        0.60230445
       55.79046       54.41814107        0.52188991
       55.89016       53.22567409        0.51480050
       55.98985       54.58297848        0.52478842
       56.08954       56.76804304        0.55303375
       56.18924       61.39831324        0.62118853
       56.28893       66.68587823        0.59301613
       56.38862       75.10058338        0.65184852
       56.48832       86.90918348        0.71465146
       56.58801       97.23556867        0.77905584
       56.68770      106.08230963        0.84104173
       56.78740      111.75945080        0.73948233
       56.88709      116.56041093        0.76336094
       56.98679      110.93894950        0.74472450
       57.08648      103.67779348        0.76231697
       57.18617       93.13785825        0.74687037
       57.28587       84.61864876        0.66424104
       57.38556       73.50279576        0.65781453
       57.48525       66.00081491        0.63453462
       57.58495       60.03958663        0.61845578
       57.68464       56.86429119        0.60680661
       57.78433       54.39011938        0.51893912
       57.88403       54.15531857        0.52383336
       57.98372       51.70861990        0.51979342
       58.08341       52.81603051        0.56811283
       58.18311       53.52158153        0.58508256
       58.28280       53.59752000        0.55148088
       58.38249       52.06625824        0.56780352
       58.48219       52.38800055        0.58188634
       58.58188       51.64341817        0.58397929
       58.68157       52.54003894        0.57728612
       58.78127       52.13173462        0.50295216
       58.88096       53.52830306        0.50224649
       58.98065       55.78904685        0.53247517
       59.08035       55.52829278        0.56682257
       59.18004       58.29192247        0.58940353
       59.27973       61.25139509        0.57032431
       59.37943       63.71397384        0.60109966
       59.47912       65.89544834        0.63658897
       59.57881       72.52276228        0.70039547
       59.67851       77.60628850        0.67604821
       59.77820       81.84085356        0.63863599
       59.87789       89.49189164        0.66626781
       59.97759       97.91274460        0.73001399
       60.07728      102.63742851        0.80999969
       60.17697      104.83236850        0.78010513
       60.27667      107.96328390        0.77009290
       60.37636      105.02965257        0.77390490
       60.47605      103.14011112        0.79982409
       60.57575       98.52278697        0.85607519
       60.67544       93.83981621        0.71725112
       60.77514       85.65086278        0.65057709
       60.87483       77.55021854        0.60623747
       60.97452       72.18437049        0.61563847
       61.07422       67.45456766        0.66802576
       61.17391       66.16931008        0.57300427
       61.27360       65.76734693        0.59150579
       61.37330       66.36528736        0.61628895
       61.47299       67.21821306        0.64759016
       61.57268       70.51084440        0.75467473
       61.67238       70.58497814        0.61540773
       61.77207       69.86046513        0.59620337
       61.87176       70.86080878        0.59386915
       61.97146       69.49792881        0.61046159
       62.07115       69.00835585        0.68889112
       62.17084       67.27972874        0.59576890
       62.27054       64.41887767        0.60754861
       62.37023       62.87654499        0.62397687
       62.46992       59.90546693        0.62960722
       62.56962       60.23675644        0.70913626
       62.66931       58.66117020        0.56359962
       62.76900       58.73184740        0.54965876
       62.86870       61.97812842        0.55261318
       62.96839       67.13088965        0.59396958
       63.06808       73.84405499        0.69402708
       63.16778       84.23382741        0.65912418
       63.26747      101.43968351        0.75066591
       63.36716      119.30573392        0.84736400
       63.46686      140.71750819        0.95125060
       63.56655      154.71133599        1.06207861
       63.66624      176.47759636        0.96756560
       63.76594      197.35531357        0.99723972
       63.86563      209.20292398        1.02544301
       63.96532      206.22422980        1.06474459
       64.06502      195.53264297        1.10870847
       64.16471      177.27720988        0.97355212
       64.26440      151.58271339        0.93324525
       64.36410      129.79188018        0.87792055
       64.46379      107.56060724        0.84217616
       64.56349       93.00732303        0.79521433
       64.66318       79.72268817        0.64304107
       64.76287       69.73505076        0.59307142
       64.86257       63.85993698        0.56616488
       64.96226       59.08333080        0.56999380
       65.06195       57.14601762        0.60596883
       65.16165       54.79963416        0.53508309
       65.26134       53.12828037        0.53904032
       65.36103       53.50785326        0.56452043
       65.46073       54.41033540        0.58805677
       65.56042       55.44962664        0.62013909
       65.66011       54.20261068        0.53450460
       65.75981       57.52597879        0.54545226
       65.85950       58.77099270        0.54792047
       65.95919       61.38875534        0.58645261
       66.05889       62.74785094        0.61341003
       66.15858       69.87882286        0.61629559
       66.25827       80.75300015        0.68639856
       66.35797       92.65796934        0.76742076
       66.45766      108.30308525        0.88379359
       66.55735      122.31403567        0.94104967
       66.65705      138.54288704        0.89066400
       66.75674      152.91649572        0.91384353
       66.85643      166.41399263        0.94443429
       66.95613      172.11707944        0.99947615
       67.05582      172.28181707        1.00741968
       67.15551      166.29534831        0.94093195
       67.25521      154.13572625        0.94897815
       67.35490      138.34897260        0.94413593
       67.45459      122.97551455        0.93654172
       67.55429      108.18469178        0.83971570
       67.65398       91.76408667        0.69145501
       67.75367       79.68465200        0.63787333
       67.85337       73.72324763        0.62053312
       67.95306       75.42279167        0.67137155
       68.05275       78.54691728        0.64909724
       68.15245       87.49869722        0.68020292
       68.25214       98.64520438        0.76796495
       68.35184      108.12309376        0.83919814
       68.45153      113.76553808        0.94846014
       68.55122      121.26981582        0.84457709
       68.65092      127.30388298        0.80729596
       68.75061      132.98612691        0.83435943
       68.85030      131.11875533        0.84413492
       68.95000      123.83025285        0.92892853
       69.04969      117.70187505        0.76408074
       69.14938      102.52937736        0.73149910
       69.24908       88.55307373        0.72436876
       69.34877       76.98758663        0.69726562
       69.44846       70.45426493        0.77291146
       69.54816       64.84612622        0.57763994
       69.64785       57.81546325        0.53714596
       69.74754       53.72101089        0.52264344
       69.84724       52.81896375        0.53168448
       69.94693       50.01780021        0.58363538
       70.04662       48.09826123        0.47049511
       70.14632       48.06016013        0.48905430
       70.24601       47.39510318        0.51995061
       70.34570       47.15751746        0.54880413
       70.44540       48.11805553        0.65328228
       70.54509       48.45263107        0.51315075
       70.64478       48.50511703        0.51270309
       70.74448       50.90219725        0.53376604
       70.84417       50.47593156        0.55151542
       70.94386       49.99235998        0.60245172
       71.04356       50.85501906        0.50288536
       71.14325       53.78115052        0.53768409
       71.24294       53.57240314        0.56461091
       71.34264       53.98348578        0.60101712
       71.44233       55.93978647        0.68294589
       71.54202       56.14912890        0.55706299
       71.64172       54.30843399        0.53275521
       71.74141       54.00500522        0.52159684
       71.84110       53.25007160        0.53607746
       71.94080       53.88676956        0.58770400
       72.04049       52.94862558        0.49300408
       72.14019       52.82233974        0.51303895
       72.23988       53.37685952        0.53966055
       72.33957       53.09026247        0.60115383
       72.43927       53.11101565        0.66188171
       72.53896       52.41928869        0.52715567
       72.63865       52.68014142        0.51657460
       72.73835       55.95750647        0.52098771
       72.83804       58.60385449        0.56326051
       72.93773       61.78228217        0.61465499
       73.03743       63.72339006        0.54202512
       73.13712       67.74018506        0.58975568
       73.23681       68.97898646        0.62536501
       73.33651       70.23774774        0.69452293
       73.43620       68.51184357        0.74274571
       73.53589       69.28627527        0.60262246
       73.63559       68.72462707        0.59069319
       73.73528       67.01896913        0.58049570
       73.83497       65.65443613        0.60898017
       73.93467       64.49040177        0.63541996
       74.03436       62.06006561        0.55141517
       74.13405       59.54311310        0.56283582
       74.23375       58.40496983        0.58052966
       74.33344       56.23053120        0.62683777
       74.43313       56.96957362        0.65478970
       74.53283       56.16212376        0.55230094
       74.63252       57.03493222        0.55262528
       74.73221       57.53826648        0.55238967
       74.83191       58.86743319        0.59283218
       74.93160       61.59842829        0.61354096
       75.03129       65.94480782        0.56478047
       75.13099       73.66935707        0.61911371
       75.23068       85.04211884        0.69516036
       75.33037       97.86975242        0.82148603
       75.43007      109.65453309        0.88380416
       75.52976      124.62108125        0.82038472
       75.62945      143.34676541        0.88179235
       75.72915      156.89445011        0.92087479
       75.82884      165.31394786        1.01909270
       75.92854      166.60873416        0.96056742
       76.02823      171.88514394        0.91579369
       76.12792      173.92725551        0.96315349
       76.22762      166.80982259        0.99397595
       76.32731      159.05148408        1.09474063
       76.42700      149.77554606        1.00110021
       76.52670      136.84997155        0.88090605
       76.62639      120.24752342        0.81305060
       76.72608      103.63805320        0.74023409
       76.82578       98.09962629        0.82909418
       76.92547       92.32446360        0.64361941
       77.02516       96.67096411        0.68311534
       77.12486      106.08213160        0.75292207
       77.22455      117.05795142        0.84370173
       77.32424      129.77460893        1.09368631
       77.42394      139.63649402        0.90733922
       77.52363      148.99347095        0.90709682
       77.62332      160.85535020        0.94004107
       77.72302      170.60729281        0.97185627
       77.82271      173.99726964        1.15163754
       77.92240      178.83919607        0.89475274
       78.02210      175.07509369        0.95466067
       78.12179      168.02345455        0.99772166
       78.22148      156.43463885        1.01607761
       78.32118      141.58424839        1.11889409
       78.42087      126.44346062        0.83008562
       78.52056      110.63681492        0.79973393
       78.62026       94.14387640        0.72991534
       78.71995       80.92857031        0.67751986
       78.81964       75.05148839        0.72808400
       78.91934       66.59530989        0.53068627
       79.01903       61.44059737        0.55837930
       79.11872       59.35471852        0.57097823
       79.21842       57.67651699        0.60027009
       79.31811       55.98265095        0.66596483
       79.41780       56.75718721        0.54403314
       79.51750       56.97039119        0.55385505
       79.61719       59.28294099        0.56687395
       79.71689       58.78726418        0.58603332
       79.81658       60.34569134        0.62957222
       79.91627       61.49205606        0.53880940
       80.01597       61.80246836        0.55524351
       80.11566       63.38234610        0.58796372
       80.21535       64.26062086        0.63294097
       80.31505       66.95843266        0.76840440
       80.41474       65.62006383        0.58438794
       80.51443       67.69855391        0.59118270
       80.61413       69.35673716        0.61839655
       80.71382       70.91273824        0.64700971
       80.81351       72.85776735        0.73716452
       80.91321       75.48947591        0.55355398
       81.01290       82.52963045        0.62549562
       81.11259       95.72229753        0.72859023
       81.21229      109.08379536        0.84300450
       81.31198      119.26049449        0.98474167
       81.41167      140.69563775        0.84023799
       81.51137      167.52257621        0.94712803
       81.61106      190.91186457        1.05955544
       81.71075      211.04955113        1.15655656
       81.81045      226.44997362        1.27215335
       81.91014      261.10215352        1.05601033
       82.00983      295.66560452        1.20749026
       82.10953      328.02202578        1.42988871
       82.20922      346.64326294        1.63937006
       82.30891      358.97807678        1.75257493
       82.40861      370.83749376        1.45119317
       82.50830      365.05393800        1.43481150
       82.60799      358.86504707        1.53095560
       82.70769      350.25279871        1.64375781
       82.80738      345.09685238        1.55769408
       82.90707      322.76870453        1.21905441
       83.00677      300.61787797        1.24930873
       83.10646      274.81410569        1.39992716
       83.20615      253.77482414        1.49260362
       83.30585      228.31585070        1.33593545
       83.40554      200.58561769        1.03662547
       83.50524      164.72571222        0.91149423
       83.60493      136.17149577        0.90890717
       83.70462      119.68900724        0.95844822
       83.80432      105.13680031        0.78328663
       83.90401       87.82869425        0.59895959
       84.00370       76.50552684        0.58208333
       84.10340       70.98449414        0.66949556
       84.20309       65.37635753        0.77934687
       84.30278       64.96631145        0.63183650
       84.40248       63.72317004        0.55219022
       84.50217       63.16662347        0.53931364
       84.60186       62.72463984        0.60765077
       84.70156       62.46542033        0.79348497
       84.80125       62.93347555        0.55454913
       84.90094       63.20702027        0.49926657
       85.00064       62.45836935        0.51127197
       85.10033       62.75973600        0.60656734
       85.20002       63.03509828        1.04265370
       85.29972       63.86700123        0.55370341
       85.39941       65.48991854        0.57181414
       85.49910       65.56014796        0.55637920
       85.59880       65.92941894        0.62742793
       85.69849       66.03529795        1.12737536
       85.79818       65.55647284        0.52954302
       85.89788       65.36465478        0.51611671
       85.99757       66.06826409        0.53322261
       86.09726       67.74714770        0.62012794
       86.19696       69.00486223        1.20231585
       86.29665       65.47884938        0.55390515
       86.39634       66.06649140        0.56609864
       86.49604       64.50549465        0.55076282
       86.59573       62.06426473        0.57537594
       86.69542       64.77235260        1.22953533
       86.79512       59.99053934        0.49078435
       86.89481       58.48694476        0.47764172
       86.99451       57.35722652        0.49019537
       87.09420       56.06663403        0.54039457
       87.19389       54.46909782        1.26135756
       87.29359       54.60778044        0.51185695
       87.39328       52.55819124        0.50876289
       87.49297       50.80590881        0.48544213
       87.59267       49.48284662        0.48838809
       87.69236       50.10173895        1.47066908
       87.79205       51.57613431        0.46494246
       87.89175       51.54507634        0.46105791
       87.99144       50.87695651        0.47724959
       88.09113       52.40227665        0.51494315
       88.19083       52.83224143        2.73630102
       88.29052       51.32894825        0.51275813
       88.39021       50.23077039        0.51052696
       88.48991       49.71694339        0.48740552
       88.58960       50.34980067        0.47505698
       88.68929       50.84724888        3.69856280
       88.78899       51.49749293        0.46383053
       88.88868       50.84455473        0.45076378
       88.98837       50.37127757        0.46661053
       89.08807       48.69053312        0.46975863
       89.18776       47.72987587        3.78369219
       89.28745       49.94811875        0.48350972
       89.38715       50.87529304        0.49306833
       89.48684       51.71744777        0.48656650
       89.58653       54.81208938        0.49099876
       89.68623       54.52419905        3.96976358
       89.78592       59.02548521        0.49545106
       89.88561       63.71000938        0.50503929
       89.98531       67.36250826        0.53283522
       90.08500       75.63382565        0.58640000
       90.18469       75.87971659        4.89878610
       90.28439       83.17565169        0.62884796
       90.38408       89.62185117        0.66443812
       90.48377       96.59218574        0.67763135
       90.58347      102.70070413        0.68844662
       90.68316      107.95685413        5.50308531
       90.78286      102.19888148        0.65732664
       90.88255      103.26210924        0.64303333
       90.98224      104.94441355        0.67088996
       91.08194      102.73794914        0.68531965
       91.18163      103.99496439        5.50318034
       91.28132      103.87518982        0.70963510
       91.38102       99.64618781        0.71297028
       91.48071       93.21764361        0.67192915
       91.58040       84.23685090        0.61679544
       91.68010       85.22081404        4.69423026
       91.77979       76.93839626        0.56516236
       91.87948       70.27518418        0.53118609
       91.97918       65.21917938        0.53091243
       92.07887       62.94851484        0.54311764
       92.17856       64.10394288        4.16809549
       92.27826       62.50407777        0.55890389
       92.37795       64.18084243        0.57995436
       92.47764       63.56268767        0.54783470
       92.57734       69.81278265        0.55757388
       92.67703       74.67682633        3.74645675
       92.77672       76.32962751        0.56254170
       92.87642       84.45208825        0.58122714
       92.97611       93.00798395        0.63785330
       93.07580      100.38433026        0.75726435
       93.17550      101.41738184        1.43151619
       93.27519      102.84387257        0.70678298
       93.37488      105.08267151        0.69474595
       93.47458      107.84579334        0.71189402
       93.57427      108.64843720        0.82620810
       93.67396      108.46603277        1.11557759
       93.77366      111.86547346        0.70223273
       93.87335      110.54922032        0.66666238
       93.97304      104.03725939        0.67322836
       94.07274       96.94792264        0.84272519
       94.17243       94.44053507        0.94864338
       94.27212       90.14849834        0.68981553
       94.37182       83.97734977        0.64818811
       94.47151       78.67396047        0.60028691
       94.57121       74.16970820        0.76862837
       94.67090       69.45491703        0.75180019
       94.77059       67.94094902        0.57787268
       94.87029       64.79637603        0.51289937
       94.96998       61.30995245        0.50492808
       95.06967       60.34027075        0.57735704
       95.16937       61.22028089        0.79621047
       95.26906       59.44290452        0.60591268
       95.36875       59.10407385        0.54820336
       95.46845       59.80787848        0.53004033
       95.56814       58.02679817        0.60057877
       95.66783       57.72861980        0.67295249
       95.76753       57.59979208        0.55547130
       95.86722       53.75306956        0.45613973
       95.96691       53.86759633        0.47364520
       96.06661       53.56504984        0.60501131
       96.16630       53.64890714        0.64569709
       96.26599       52.25880331        0.57217802
       96.36569       52.04705477        0.51234348
       96.46538       51.15814391        0.49014052
       96.56507       48.56000025        0.58913332
       96.66477       48.22880487        0.57207434
       96.76446       48.34349867        0.51183387
       96.86415       48.70424950        0.44502653
       96.96385       48.98763980        0.46100086
       97.06354       49.94694981        0.62954650
       97.16323       50.00436183        0.60229791
       97.26293       50.79753908        0.57040747
       97.36262       51.02995357        0.52944384
       97.46231       50.37458719        0.48388611
       97.56201       51.32038501        0.62147500
       97.66170       51.51369237        0.55926985
       97.76139       52.47390222        0.51288900
       97.86109       53.88640306        0.47009517
       97.96078       55.75211903        0.48876724
       98.06047       54.70978140        0.67239078
       98.16017       54.42384684        0.59613688
       98.25986       55.41172059        0.57465981
       98.35956       54.96666519        0.54030563
       98.45925       56.92653259        0.51340573
       98.55894       58.85579904        0.68119697
       98.65864       58.61194242        0.58323867
       98.75833       60.77561533        0.55513305
       98.85802       65.18765167        0.53723116
       98.95772       68.51357400        0.54740352
       99.05741       69.74483195        0.76689092
       99.15710       70.97569139        0.66545925
       99.25680       76.38379789        0.66943715
       99.35649       79.44286117        0.65057122
       99.45618       83.42186686        0.62169539
       99.55588       85.02591199        0.83887813
       99.65557       86.83692309        0.69961304
       99.75526       88.84510698        0.66349164
       99.85496       89.92237986        0.63543071
       99.95465       89.34308735        0.62089196
      100.05434       89.09788595        0.88325803
      100.15404       91.99334958        0.75632929
      100.25373       90.80613867        0.74228299
      100.35342       90.34180905        0.73743037
      100.45312       89.33305671        0.66902323
      100.55281       87.04519828        0.86703617
      100.65250       83.09955060        0.68967866
      100.75220       80.35393282        0.62789880
      100.85189       75.22570397        0.57998645
      100.95158       72.92908360        0.55558688
      101.05128       72.41996381        0.78926152
      101.15097       72.44272159        0.65241220
      101.25066       71.80882297        0.64169429
      101.35036       71.20691530        0.64447181
      101.45005       72.86901459        0.61324586
      101.54974       73.53964905        0.76741381
      101.64944       75.77921316        0.63582155
      101.74913       78.55053283        0.61022830
      101.84882       83.43314734        0.61270550
      101.94852       84.70600628        0.65044977
      102.04821       87.69643328        0.79756494
      102.14791       88.22174582        0.72100358
      102.24760       91.10790740        0.72687420
      102.34729       91.52220417        0.72560330
      102.44699       92.59309117        0.74266133
      102.54668       92.01983193        0.77679707
      102.64637       92.33372639        0.69499462
      102.74607       95.29610136        0.67276557
      102.84576       96.75218350        0.66517933
      102.94545       98.01156896        0.76268501
      103.04515       94.66233685        0.79302903
      103.14484       94.30666845        0.73949310
      103.24453       91.02132720        0.71488766
      103.34423       89.02183675        0.70102881
      103.44392       89.26806463        0.76045642
      103.54361       88.51993236        0.73554685
      103.64331       86.79898437        0.66280750
      103.74300       84.74521844        0.62448465
      103.84269       82.56564021        0.60550482
      103.94239       80.89022221        0.72001925
      104.04208       79.76813926        0.69159179
      104.14177       80.72107374        0.67697507
      104.24147       79.93567516        0.67324008
      104.34116       81.06516869        0.68232148
      104.44085       81.17206179        0.77547657
      104.54055       80.21576291        0.69784642
      104.64024       82.02969580        0.66355392
      104.73993       78.19505979        0.61782078
      104.83963       74.40177879        0.58023513
      104.93932       73.48758503        0.69897122
      105.03901       71.70270779        0.65035669
      105.13871       70.72516520        0.62182645
      105.23840       66.90546604        0.60405608
      105.33809       64.79642092        0.59775043
      105.43779       63.32638292        0.68739743
      105.53748       61.68974544        0.60826110
      105.63717       59.19416200        0.54591305
      105.73687       56.78689129        0.50865095
      105.83656       55.44681266        0.48964417
      105.93626       54.29136146        0.61387883
      106.03595       53.14059341        0.55033703
      106.13564       51.25955825        0.52224048
      106.23534       51.92557946        0.53215643
      106.33503       50.26058158        0.52869138
      106.43472       50.21925995        0.62477248
      106.53442       48.56415484        0.53424634
      106.63411       48.00782822        0.48247559
      106.73380       49.10343400        0.46515082
      106.83350       48.70369522        0.45630569
      106.93319       49.56027648        0.59678497
      107.03288       50.45292819        0.53374657
      107.13258       51.23078413        0.52212399
      107.23227       51.93638608        0.53340228
      107.33196       51.75900440        0.53101271
      107.43166       52.64837775        0.64359235
      107.53135       54.00180394        0.56251487
      107.63104       56.68962137        0.52504115
      107.73074       59.83968080        0.51781876
      107.83043       62.16553631        0.52132440
      107.93012       64.33557413        0.70184008
      108.02982       66.86027113        0.62650249
      108.12951       65.71057440        0.59051634
      108.22920       66.95567175        0.58665291
      108.32890       69.17071528        0.59081882
      108.42859       70.28281162        0.75598963
      108.52828       70.93935244        0.64432811
      108.62798       73.33495501        0.59427682
      108.72767       74.45900313        0.57487328
      108.82736       73.15075224        0.58222430
      108.92706       74.38280229        0.74372450
      109.02675       73.96149965        0.64874197
      109.12644       74.11363546        0.63384853
      109.22614       74.26317836        0.63500333
      109.32583       73.21444052        0.68692880
      109.42552       73.64109819        0.72674294
      109.52522       72.24749398        0.64927538
      109.62491       68.79895575        0.60229288
      109.72461       66.51716845        0.56597381
      109.82430       63.66337076        0.51697346
      109.92399       61.33805901        0.65950677
      110.02369       60.37699962        0.57289739
      110.12338       58.56036064        0.56036025
      110.22307       58.04426922        0.55366092
      110.32277       56.82579121        0.55929383
      110.42246       55.03922304        0.66905484
      110.52215       55.79540443        0.57061978
      110.62185       54.35230328        0.53065200
      110.72154       52.51253361        0.48646661
      110.82123       52.97459952        0.50465035
      110.92093       53.67207607        0.59252075
      111.02062       53.01710819        0.54399066
      111.12031       54.64741180        0.55657247
      111.22001       54.26544838        0.54419797
      111.31970       55.38081330        0.59675932
      111.41939       56.54457423        0.62408780
      111.51909       56.67875406        0.56696820
      111.61878       58.48533523        0.54270884
      111.71847       61.21379768        0.51681622
      111.81817       63.81828670        0.57299343
      111.91786       66.72449863        0.61689142
      112.01755       68.44070417        0.61023748
      112.11725       70.18971255        0.62285414
      112.21694       73.44835008        0.63464352
      112.31663       74.30712787        0.70352630
      112.41633       76.41472047        0.70112365
      112.51602       79.05856181        0.65702118
      112.61571       81.79784965        0.63781352
      112.71541       85.50737367        0.61493734
      112.81510       87.10855282        0.69612925
      112.91479       87.76243828        0.71185013
      113.01449       89.03959336        0.70228762
      113.11418       90.43228564        0.70556143
      113.21387       90.07409548        0.70091641
      113.31357       91.15751511        0.78323464
      113.41326       90.24265636        0.74048429
      113.51296       92.79582662        0.70663027
      113.61265       93.16494464        0.68322524
      113.71234       92.39880915        0.64982394
      113.81204       91.15459332        0.73927555
      113.91173       90.45621729        0.71353722
      114.01142       89.26189226        0.70152799
      114.11112       85.99317943        0.68781270
      114.21081       85.59260109        0.69112472
      114.31050       83.61313068        0.77438373
      114.41020       82.68804911        0.71149088
      114.50989       81.40670364        0.66074563
      114.60958       78.35408517        0.62698165
      114.70928       75.57413389        0.59360213
      114.80897       73.17902140        0.66222665
      114.90866       71.00952639        0.61505519
      115.00836       69.66748385        0.60622749
      115.10805       70.29684707        0.61234295
      115.20774       68.50603228        0.61345118
      115.30744       69.23694611        0.70819101
      115.40713       70.22214555        0.64610803
      115.50682       70.47036355        0.61107912
      115.60652       70.28068868        0.58812839
      115.70621       71.46840518        0.57010659
      115.80590       71.96516351        0.66744011
      115.90560       74.48899720        0.61572950
      116.00529       76.55608030        0.63140377
      116.10498       81.75275297        0.65988895
      116.20468       82.59008465        0.67858535
      116.30437       88.10992711        0.83630155
      116.40406       91.53949732        0.74286020
      116.50376       96.18427388        0.72016064
      116.60345      103.33768643        0.71742080
      116.70314      112.38567728        0.72659123
      116.80284      122.29748981        0.90211283
      116.90253      128.86339449        0.83392126
      117.00222      136.46148110        0.85245946
      117.10192      144.60454568        0.90227308
      117.20161      149.56724657        0.92957075
      117.30131      150.88477547        1.11747989
      117.40100      158.28512396        0.96342385
      117.50069      164.18931645        0.93285160
      117.60039      172.77262615        0.91709236
      117.70008      178.36054234        0.90355141
      117.79977      183.24375973        1.12317334
      117.89947      187.04487003        0.98710533
      117.99916      191.00457689        1.01005670
      118.09885      192.27535811        1.03262925
      118.19855      192.79802930        1.08312581
      118.29824      196.75717897        1.20030572
      118.39793      196.41767352        1.08878267
      118.49763      198.49683945        1.03319028
      118.59732      198.60210707        0.99780571
      118.69701      196.50966378        1.03360788
      118.79671      191.61303186        1.10117203
      118.89640      188.14974091        1.01677841
      118.99609      181.26779802        0.99580419
      119.09579      176.65696781        0.99375401
      119.19548      171.35484765        1.06847381
      119.29517      169.32765015        1.10310478
      119.39487      162.88672611        0.99350359
      119.49456      156.57657088        0.91696144
      119.59425      148.57927504        0.86631171
      119.69395      142.55109862        0.89432891
      119.79364      138.00742174        0.88862948
      119.89333      133.92042424        0.84661866
      119.99303      129.60398534        0.81257830
      120.09272      127.28385450        0.82330208
      120.19241      125.87364169        0.92004746
      120.29211      123.18451517        0.90047617
      120.39180      122.73444187        0.85745712
      120.49149      119.51334821        0.78651439
      120.59119      117.94477368        0.75817050
      120.69088      116.97046122        0.81266195
      120.79057      115.87738715        0.79134499
      120.89027      114.87953454        0.77343286
      120.98996      117.09421924        0.77514292
      121.08966      117.49014164        0.78231740
      121.18935      117.15118567        0.89539242
      121.28904      115.59540892        0.86665101
      121.38874      114.03815896        0.81378876
      121.48843      117.07726018        0.77920713
      121.58812      117.87461922        0.74579446
      121.68782      118.92531710        0.83003581
      121.78751      120.50855297        0.79640536
      121.88720      122.15283320        0.79178924
      121.98690      121.37986945        0.79508973
      122.08659      121.57031517        0.81167436
      122.18628      119.26265630        0.93224589
      122.28598      118.05664284        0.87205196
      122.38567      118.63820954        0.83733128
      122.48536      117.81405910        0.78919329
      122.58506      115.80124809        0.74078358
      122.68475      112.45644656        0.82675942
      122.78444      113.53774717        0.78236263
      122.88414      106.78560366        0.75143786
      122.98383      105.86109344        0.76338779
      123.08352      101.42375448        0.74026748
      123.18322       99.67987748        0.85567675
      123.28291       98.93953879        0.77468828
      123.38260       97.57262522        0.74249950
      123.48230       95.67295864        0.70839968
      123.58199       95.41644454        0.66120494
      123.68168       92.85670651        0.74398818
      123.78138       92.39878114        0.66952030
      123.88107       91.14615542        0.64945253
      123.98076       86.98001841        0.64571120
      124.08046       85.53020576        0.63340319
      124.18015       88.15376690        0.72816472
      124.27984       84.68236537        0.63903317
      124.37954       82.32732674        0.59432765
      124.47923       80.59598352        0.57391009
      124.57893       73.89134354        0.58478290
