        5.04651       55.88580294        1.14910570
        5.14621       54.11726953        1.08945514
        5.24590       52.04061837        1.05264800
        5.34559       52.55359135        0.97028457
        5.44529       51.14930403        1.04112902
        5.54498       50.20668394        0.86752548
        5.64467       51.76440860        0.87341764
        5.74437       51.23906344        0.78434082
        5.84406       50.00854544        0.78399433
        5.94375       49.96813086        0.78262157
        6.04345       48.99132039        0.75286606
        6.14314       48.03735804        0.68247588
        6.24283       48.78193977        0.71053947
        6.34253       48.91513128        0.67864842
        6.44222       48.93774634        0.71476028
        6.54191       46.76253129        0.66165562
        6.64161       47.49675140        0.63179409
        6.74130       47.75990547        0.63612998
        6.84099       48.65558268        0.63751774
        6.94069       47.70562973        0.64066338
        7.04038       47.57036667        0.59052571
        7.14007       48.65602904        0.59610048
        7.23977       47.33679411        0.57755153
        7.33946       47.56542093        0.58782999
        7.43915       47.07313381        0.57710010
        7.53885       47.56286310        0.56943970
        7.63854       47.10468504        0.54158672
        7.73823       46.93169031        0.56131121
        7.83793       47.64896875        0.54739079
        7.93762       47.31942499        0.56899683
        8.03732       46.30135089        0.50468268
        8.13701       46.48949138        0.50344073
        8.23670       46.70805617        0.51176272
        8.33640       47.13488663        0.51427507
        8.43609       46.88184578        0.53618457
        8.53578       45.84767959        0.49379669
        8.63548       46.64911836        0.49243757
        8.73517       47.20314782        0.48595882
        8.83486       47.18766084        0.48706101
        8.93456       46.50882619        0.48100465
        9.03425       46.10942605        0.46487794
        9.13394       46.35877833        0.46703108
        9.23364       46.27507506        0.47341537
        9.33333       46.77014236        0.48567305
        9.43302       46.26894500        0.48320139
        9.53272       45.90628106        0.46501349
        9.63241       45.48634039        0.47593039
        9.73210       45.41862431        0.47461714
        9.83180       45.71711841        0.49619588
        9.93149       46.42166554        0.49648648
       10.03118       46.94163898        0.48042631
       10.13088       46.11099595        0.46467991
       10.23057       46.80536578        0.49032390
       10.33026       47.00057993        0.50790574
       10.42996       47.28497689        0.50248486
       10.52965       47.89066726        0.48979135
       10.62934       47.61381659        0.48952338
       10.72904       47.11078407        0.49408882
       10.82873       47.55470554        0.49394786
       10.92842       49.12499397        0.51059126
       11.02812       48.48021121        0.48318883
       11.12781       49.06727294        0.50359352
       11.22750       49.05541677        0.50854823
       11.32720       50.70789826        0.53110236
       11.42689       50.89388882        0.51363183
       11.52658       53.11686791        0.51867578
       11.62628       54.07038605        0.52907616
       11.72597       57.19500516        0.55600723
       11.82567       59.07106366        0.58095418
       11.92536       63.66349022        0.56485457
       12.02505       67.61428586        0.58522704
       12.12475       74.69422436        0.61529519
       12.22444       82.48733383        0.68654678
       12.32413       95.25159709        0.75060720
       12.42383      106.64789231        0.75526799
       12.52352      123.67656315        0.81052582
       12.62321      143.08801380        0.89929181
       12.72291      168.40755378        0.95308519
       12.82260      194.57392250        1.11801761
       12.92229      216.50697393        1.07452895
       13.02199      245.34689150        1.13953799
       13.12168      269.82883870        1.21985187
       13.22137      300.83934005        1.33550062
       13.32107      323.21110616        1.43291015
       13.42076      349.88130738        1.44014888
       13.52045      364.80842147        1.49091527
       13.62015      367.76964095        1.45121357
       13.71984      348.30407372        1.46784861
       13.81953      320.99638235        1.42786087
       13.91923      281.53847542        1.24949636
       14.01892      220.60810071        1.06785253
       14.11861      170.54958332        0.97286629
       14.21831      132.99170386        0.85537593
       14.31800      106.95634645        0.80455880
       14.41769       83.91843498        0.68397140
       14.51739       70.77628965        0.61162026
       14.61708       60.16190107        0.56437795
       14.71677       54.30402123        0.54444555
       14.81647       51.75190185        0.55656031
       14.91616       49.28374172        0.49926281
       15.01585       49.56914887        0.50976140
       15.11555       48.08114532        0.50774011
       15.21524       48.24331219        0.52420069
       15.31493       47.91251813        0.53496733
       15.41463       47.63788823        0.51645856
       15.51432       46.75850155        0.49573975
       15.61402       47.08617577        0.51009997
       15.71371       46.24162309        0.50195864
       15.81340       47.62940375        0.53008972
       15.91310       47.07910837        0.51203199
       16.01279       47.40879765        0.49200741
       16.11248       46.95231789        0.50274164
       16.21218       46.70655292        0.51529770
       16.31187       46.18644659        0.51362707
       16.41156       47.39674013        0.51073216
       16.51126       47.69116626        0.52100515
       16.61095       48.05555497        0.50431549
       16.71064       49.62796459        0.52884752
       16.81034       50.63264644        0.53588379
       16.91003       52.40922126        0.52964410
       17.00972       53.78312204        0.51519954
       17.10942       57.75568198        0.56467323
       17.20911       60.88861495        0.58521652
       17.30880       64.96022663        0.61013315
       17.40850       67.17644675        0.62053149
       17.50819       72.05451954        0.62454632
       17.60788       75.41840859        0.65917350
       17.70758       75.02717750        0.66012546
       17.80727       73.98833400        0.66351428
       17.90696       71.83555416        0.61105522
       18.00666       68.74556277        0.60794488
       18.10635       62.78933020        0.56456174
       18.20604       59.71776611        0.60368572
       18.30574       57.26390053        0.56317260
       18.40543       54.06949292        0.53340609
       18.50512       54.09492511        0.55037328
       18.60482       52.44718072        0.53327451
       18.70451       50.56704203        0.55316964
       18.80420       52.93027110        0.53188647
       18.90390       51.17702607        0.51726274
       19.00359       48.65823271        0.49097388
       19.10328       47.70040983        0.51422111
       19.20298       48.20008507        0.53303799
       19.30267       45.83031300        0.49893943
       19.40237       45.77653810        0.49299846
       19.50206       46.87094319        0.51149639
       19.60175       45.50708628        0.49823006
       19.70145       44.93214394        0.51907779
       19.80114       45.54606330        0.49571897
       19.90083       45.05000332        0.47630993
       20.00053       45.83769171        0.48904800
       20.10022       46.84266456        0.49813889
       20.19991       47.93256117        0.53882801
       20.29961       47.92017219        0.51047532
       20.39930       49.66931338        0.53557090
       20.49899       50.59773807        0.53124786
       20.59869       51.14514892        0.54393115
       20.69838       52.40723324        0.57103049
       20.79807       52.28799393        0.54401757
       20.89777       53.30021345        0.53692636
       20.99746       54.61107823        0.54901751
       21.09715       57.35584174        0.59292685
       21.19685       57.07742600        0.58837472
       21.29654       58.40435108        0.58072294
       21.39623       56.79597948        0.57254146
       21.49593       56.06713640        0.56065460
       21.59562       53.54064330        0.56082421
       21.69531       51.59520151        0.57244210
       21.79501       47.92119965        0.50435942
       21.89470       46.50217620        0.48553646
       21.99439       45.63399047        0.50129955
       22.09409       44.91348557        0.49849621
       22.19378       46.30991322        0.53769587
       22.29347       44.34059063        0.48984870
       22.39317       45.11909662        0.50699970
       22.49286       45.50499902        0.50879045
       22.59255       47.50124376        0.52612552
       22.69225       48.93508573        0.56287764
       22.79194       50.47378093        0.51353988
       22.89163       53.41708339        0.51823620
       22.99133       58.78586989        0.55925218
       23.09102       63.53111931        0.60428987
       23.19072       66.50966214        0.62007054
       23.29041       69.51885418        0.62637483
       23.39010       71.55104046        0.64234630
       23.48980       68.46545880        0.63028906
       23.58949       66.26040186        0.62813201
       23.68918       63.51876494        0.64640524
       23.78888       57.94470523        0.54968869
       23.88857       52.83276598        0.53127941
       23.98826       49.52310749        0.52555711
       24.08796       47.10931419        0.50239108
       24.18765       45.99296133        0.53179597
       24.28734       45.41376447        0.50307298
       24.38704       44.43392200        0.50584691
       24.48673       44.76300649        0.50592994
       24.58642       43.85218955        0.51724336
       24.68612       44.41771537        0.51993127
       24.78581       43.91540036        0.47652898
       24.88550       44.23182352        0.47807401
       24.98520       44.60408912        0.49787213
       25.08489       45.94758987        0.51552475
       25.18458       46.22917544        0.52799022
       25.28428       46.76051108        0.51185138
       25.38397       47.98801084        0.51611744
       25.48366       50.05048882        0.53043512
       25.58336       54.32906095        0.57644501
       25.68305       59.30935268        0.59120718
       25.78274       70.17757055        0.60806488
       25.88244       83.69514358        0.68229888
       25.98213      105.30938070        0.77425119
       26.08182      128.27979721        0.88005491
       26.18152      149.35562406        0.97561868
       26.28121      176.35875567        1.00690349
       26.38090      190.68112119        1.05803156
       26.48060      198.85471134        1.11173516
       26.58029      187.84768538        1.12539293
       26.67998      174.40072587        1.02225833
       26.77968      148.13540952        0.92733559
       26.87937      116.64452714        0.80721050
       26.97907       94.57901431        0.71836160
       27.07876       81.93935863        0.71854020
       27.17845       76.19621042        0.66155056
       27.27815       78.14266371        0.65446327
       27.37784       82.37035239        0.69860457
       27.47753       84.01859226        0.69532523
       27.57723       84.72848868        0.73154863
       27.67692       83.58840501        0.70910167
       27.77661       78.43293944        0.65505717
       27.87631       69.89515844        0.60725829
       27.97600       61.84352210        0.58332240
       28.07569       57.50916382        0.59493490
       28.17539       52.28218540        0.54257340
       28.27508       49.68271204        0.52891475
       28.37477       48.91620190        0.53723965
       28.47447       48.79312213        0.53236137
       28.57416       49.81986506        0.58167455
       28.67385       51.27400572        0.52513464
       28.77355       54.19530216        0.53041042
       28.87324       55.03896464        0.54883637
       28.97293       56.86875693        0.55936243
       29.07263       57.58821637        0.61365401
       29.17232       56.78078127        0.55599549
       29.27201       57.09834756        0.56788271
       29.37171       52.64327456        0.56050345
       29.47140       51.29179408        0.54675207
       29.57109       49.88499548        0.57163349
       29.67079       47.80667970        0.50927093
       29.77048       47.11015989        0.50665916
       29.87017       46.01535344        0.49081570
       29.96987       46.11628953        0.51520729
       30.06956       46.06708682        0.53124218
       30.16925       46.90793904        0.50481530
       30.26895       47.72552541        0.51121348
       30.36864       47.82500197        0.52011771
       30.46833       49.10627147        0.53249705
       30.56803       51.53738069        0.57649038
       30.66772       54.68610402        0.55290928
       30.76742       58.29705334        0.55978786
       30.86711       61.87956811        0.58858261
       30.96680       62.93886611        0.59713560
       31.06650       62.34896993        0.62312373
       31.16619       61.77468040        0.58312565
       31.26588       59.40616840        0.56817311
       31.36558       57.72376415        0.56724172
       31.46527       57.42675084        0.58867182
       31.56496       59.70580052        0.61011742
       31.66466       63.00639631        0.58646187
       31.76435       69.93906517        0.61796406
       31.86404       77.51445513        0.64282012
       31.96374       83.91875671        0.68508045
       32.06343       87.56923780        0.72464761
       32.16312       87.34980166        0.68013902
       32.26282       83.49920303        0.68080525
       32.36251       78.38686839        0.68546351
       32.46220       74.10979121        0.67799188
       32.56190       68.70756579        0.66379924
       32.66159       68.36607399        0.62878190
       32.76128       65.52407352        0.60147287
       32.86098       65.18510756        0.60889053
       32.96067       64.26922276        0.61207643
       33.06036       62.13540399        0.61258585
       33.16006       59.23824696        0.56301524
       33.25975       57.00705825        0.57003335
       33.35944       53.72499425        0.55606342
       33.45914       56.86991227        0.59419203
       33.55883       57.24316072        0.59757188
       33.65852       60.89611189        0.57509102
       33.75822       64.50816457        0.59122120
       33.85791       72.94488084        0.63212919
       33.95760       80.46105466        0.68431954
       34.05730       93.11286442        0.73048883
       34.15699      105.67173268        0.76732262
       34.25668      120.92320425        0.81986284
       34.35638      149.11754750        0.93797352
       34.45607      185.99736856        1.10925301
       34.55577      230.87833516        1.18516372
       34.65546      292.95275649        1.29119699
       34.75515      363.81070734        1.48006201
       34.85485      421.52228101        1.59278414
       34.95454      442.49497237        1.68759365
       35.05423      430.44621329        1.71881035
       35.15393      390.17634336        1.52901785
       35.25362      323.35264888        1.40147062
       35.35331      253.40400422        1.26107642
       35.45301      190.80600359        1.13189177
       35.55270      146.93540088        0.96110135
       35.65239      110.83777687        0.80183074
       35.75209       90.00664651        0.71496741
       35.85178       80.29500533        0.67335051
       35.95147       73.70311517        0.65959855
       36.05117       69.51359246        0.62696443
       36.15086       66.13607070        0.58769318
       36.25055       63.79656462        0.60281196
       36.35025       61.18040707        0.60161905
       36.44994       59.88092992        0.60696173
       36.54963       57.87755800        0.57263208
       36.64933       57.86807149        0.56404125
       36.74902       55.90264699        0.55998287
       36.84871       53.84707721        0.54543190
       36.94841       52.54529612        0.58254684
       37.04810       52.03316091        0.51110480
       37.14779       51.24925304        0.51757109
       37.24749       48.89534457        0.51939574
       37.34718       48.00552270        0.52769467
       37.44687       47.85169579        0.56592446
       37.54657       47.99057786        0.51741363
       37.64626       46.52600447        0.50737464
       37.74595       47.35598700        0.50394943
       37.84565       46.56167081        0.52866014
       37.94534       47.08064527        0.54161271
       38.04503       47.12907913        0.48977944
       38.14473       46.89780552        0.49334434
       38.24442       46.99884043        0.50291054
       38.34412       48.11924172        0.53211976
       38.44381       47.94778507        0.57433370
       38.54350       48.23261954        0.51351159
       38.64320       50.06215197        0.52174015
       38.74289       50.46695145        0.53073387
       38.84258       53.44384741        0.54776639
       38.94228       55.01388973        0.58307113
       39.04197       58.69092343        0.54338882
       39.14166       64.09398921        0.59125197
       39.24136       68.04545742        0.60796680
       39.34105       70.06302803        0.63864099
       39.44074       71.42662514        0.70351574
       39.54044       70.76077836        0.62602623
       39.64013       71.26309663        0.62638345
       39.73982       66.46562546        0.60688667
       39.83952       62.59401812        0.58458223
       39.93921       61.81114867        0.61587784
       40.03890       58.07011642        0.54607491
       40.13860       58.04422388        0.54524648
       40.23829       56.53875063        0.55702193
       40.33798       56.20731250        0.57266692
       40.43768       56.92176533        0.60303619
       40.53737       56.56074491        0.55788260
       40.63706       56.01805702        0.56680345
       40.73676       57.72161026        0.57461309
       40.83645       59.24003324        0.58713549
       40.93614       62.79264623        0.61498807
       41.03584       66.53463289        0.59611780
       41.13553       77.49997626        0.64525808
       41.23522       92.81641388        0.72506569
       41.33492      114.81695594        0.84709497
       41.43461      138.73630125        0.96451279
       41.53430      164.12160762        0.98615506
       41.63400      192.87296390        1.09708197
       41.73369      212.20209091        1.12880547
       41.83338      216.31029544        1.17074033
       41.93308      220.64034311        1.17266394
       42.03277      224.77393463        1.08244489
       42.13247      248.92229401        1.20143837
       42.23216      296.79876369        1.32311984
       42.33185      357.93492446        1.57249404
       42.43155      412.82419805        1.67522963
       42.53124      473.42116530        1.75003898
       42.63093      511.34116012        1.83019442
       42.73063      532.40628475        1.88079543
       42.83032      521.18526415        1.89136614
       42.93001      487.52491795        1.75350094
       43.02971      423.91119303        1.53274167
       43.12940      350.13125314        1.40823447
       43.22909      269.85265322        1.28552345
       43.32879      207.69708453        1.17789823
       43.42848      159.79222327        1.00353717
       43.52817      117.59495130        0.81845186
       43.62787       90.68645216        0.71337592
       43.72756       75.36072123        0.66409522
       43.82725       68.06886061        0.65828121
       43.92695       62.09335746        0.56957952
       44.02664       58.88755197        0.55173927
       44.12633       56.26033393        0.55914536
       44.22603       55.11119897        0.57590619
       44.32572       54.11417645        0.60136371
       44.42541       54.00328293        0.57355370
       44.52511       54.60007340        0.56126019
       44.62480       55.04082067        0.57153055
       44.72449       57.94561911        0.56857004
       44.82419       61.04495018        0.65517714
       44.92388       66.04942853        0.56884873
       45.02357       74.35136366        0.60929890
       45.12327       88.73274215        0.68717669
       45.22296      107.44111031        0.77833833
       45.32265      131.36656407        0.95555955
       45.42235      150.35149631        0.93337068
       45.52204      179.98808938        1.01541907
       45.62174      203.86047156        1.10404834
       45.72143      216.44016313        1.13941922
       45.82112      225.67164107        1.27528552
       45.92082      225.68151499        1.08263174
       46.02051      223.22105145        1.09930546
       46.12020      220.38229464        1.09550820
       46.21990      213.26336494        1.13141701
       46.31959      198.63486827        1.17668369
       46.41928      184.83839150        1.04642151
       46.51898      159.24975597        0.97299729
       46.61867      131.39616097        0.87563338
       46.71836      108.13455541        0.81182021
       46.81806       88.83793009        0.76063974
       46.91775       74.87312032        0.60730440
       47.01744       65.60931286        0.58115205
       47.11714       66.15169960        0.59693217
       47.21683       69.15534147        0.62860259
       47.31652       78.10087349        0.72984078
       47.41622       88.87765584        0.73495755
       47.51591      104.53974426        0.80050705
       47.61560      116.63588955        0.83994966
       47.71530      133.29888228        0.90990419
       47.81499      144.92218782        0.97423513
       47.91468      156.49940630        0.88712580
       48.01438      166.91130558        0.91798436
       48.11407      170.41416918        0.96274730
       48.21376      169.62186931        1.00270963
       48.31346      165.13689722        1.02394307
       48.41315      157.32159477        0.93054173
       48.51284      144.72719002        0.92053741
       48.61254      125.80259660        0.85231153
       48.71223      107.76160436        0.80093918
       48.81192       94.24775668        0.74571963
       48.91162       78.14774832        0.60716262
       49.01131       66.29740446        0.57773139
       49.11100       57.44134253        0.55631679
       49.21070       53.95695641        0.56574586
       49.31039       51.81441695        0.57037137
       49.41009       50.45533847        0.53158568
       49.50978       50.72257643        0.54404598
       49.60947       49.09817243        0.53902965
       49.70917       47.52006715        0.54980876
       49.80886       48.42227471        0.54024058
       49.90855       49.16172894        0.49593156
       50.00825       49.63993450        0.50890573
       50.10794       49.88702692        0.52180381
       50.20763       49.93469378        0.54542913
       50.30733       53.02774226        0.58907547
       50.40702       54.16623806        0.55842405
       50.50671       55.91967572        0.56922981
       50.60641       56.28361926        0.57192418
       50.70610       56.26524055        0.58839090
       50.80579       56.23008759        0.58044137
       50.90549       56.79705855        0.52600042
       51.00518       54.90774347        0.52159233
       51.10487       55.83800303        0.54380148
       51.20457       56.29162996        0.58131799
       51.30426       56.57497634        0.57977615
       51.40395       57.23843643        0.55912882
       51.50365       58.54193543        0.57204686
       51.60334       60.32537909        0.59234608
       51.70303       60.41896399        0.62953626
       51.80273       60.55967569        0.57814096
       51.90242       60.76131201        0.54108013
       52.00211       61.12699229        0.54530682
       52.10181       62.08579936        0.56705484
       52.20150       62.93967701        0.62885458
       52.30119       62.14252025        0.60184360
       52.40089       62.17289603        0.59256743
       52.50058       62.18220090        0.60380819
       52.60027       60.79131144        0.60502579
       52.69997       61.57448080        0.66740183
       52.79966       61.44028445        0.56048069
       52.89935       66.56876302        0.56341415
       52.99905       75.10949208        0.60911359
       53.09874       87.07962156        0.67832427
       53.19844       98.26076382        0.82659778
       53.29813      109.44459158        0.77660038
       53.39782      123.50566087        0.85529921
       53.49752      131.95811481        0.88920405
       53.59721      140.26772270        0.91722034
       53.69690      145.76982320        1.02682386
       53.79660      147.67634541        0.86599123
       53.89629      149.16151246        0.86116408
       53.99598      145.25715533        0.87007326
       54.09568      135.99741287        0.87789127
       54.19537      125.68830939        0.91896082
       54.29506      115.21579695        0.80698168
       54.39476      105.53903809        0.77715334
       54.49445       97.65909509        0.74717406
       54.59414       91.73824031        0.73449659
       54.69384       90.19466051        0.77676003
       54.79353       87.70127941        0.65656020
       54.89322       83.82786518        0.63917422
       54.99292       81.59845690        0.64885060
       55.09261       75.33071730        0.64765417
       55.19230       71.06046292        0.67503040
       55.29200       66.85864716        0.60899781
       55.39169       61.18615477        0.60055822
       55.49138       59.06959284        0.58768609
       55.59108       57.49456914        0.59823563
       55.69077       56.16629734        0.60667965
       55.79046       56.08892234        0.53003594
       55.89016       55.29344456        0.52493421
       55.98985       55.97140270        0.53159047
       56.08954       60.67657282        0.57218703
       56.18924       64.55162970        0.63733745
       56.28893       72.04173666        0.61698799
       56.38862       83.39932787        0.68795438
       56.48832       94.78819507        0.74740861
       56.58801      105.11989069        0.81117806
       56.68770      112.11274188        0.86557078
       56.78740      115.55315079        0.75247104
       56.88709      114.00899832        0.75469070
       56.98679      105.91514166        0.72710063
       57.08648       96.42726020        0.73432522
       57.18617       85.34197578        0.71403059
       57.28587       74.53899950        0.62239411
       57.38556       65.85993252        0.62190395
       57.48525       60.09544476        0.60491148
       57.58495       56.57839192        0.60005168
       57.68464       55.38828703        0.59877307
       57.78433       53.23707124        0.51334644
       57.88403       52.26352049        0.51447387
       57.98372       51.94465795        0.52104053
       58.08341       51.96360797        0.56347035
       58.18311       52.95083138        0.58194242
       58.28280       52.67665876        0.54667823
       58.38249       52.66942718        0.57118738
       58.48219       52.12479590        0.58044163
       58.58188       52.47703090        0.58880485
       58.68157       53.12385885        0.58058882
       58.78127       52.75498906        0.50604400
       58.88096       54.38287013        0.50635434
       58.98065       55.18859440        0.52958816
       59.08035       55.90280722        0.56881219
       59.18004       57.63000169        0.58602609
       59.27973       58.83224488        0.55875782
       59.37943       62.93893730        0.59739897
       59.47912       65.51354360        0.63474909
       59.57881       71.00194798        0.69288500
       59.67851       76.15156464        0.66956628
       59.77820       84.36597337        0.64874478
       59.87789       92.88252137        0.67921872
       59.97759      101.13871849        0.74240848
       60.07728      102.93094581        0.81126000
       60.17697      106.36956423        0.78607000
       60.27667      108.53587754        0.77226682
       60.37636      107.75961304        0.78432298
       60.47605      106.33155430        0.81260849
       60.57575       97.97611575        0.85368282
       60.67544       93.49461617        0.71594355
       60.77514       86.34287617        0.65332800
       60.87483       77.75318527        0.60709852
       60.97452       71.95429065        0.61467990
       61.07422       68.16284767        0.67165810
       61.17391       66.76844839        0.57569694
       61.27360       66.43814421        0.59462984
       61.37330       66.13499117        0.61524211
       61.47299       67.31327974        0.64810898
       61.57268       69.80781176        0.75087033
       61.67238       70.32841954        0.61430883
       61.77207       70.00899394        0.59689849
       61.87176       72.08467416        0.59914860
       61.97146       70.91285561        0.61684298
       62.07115       70.91736879        0.69863897
       62.17084       67.80795734        0.59820415
       62.27054       68.11619201        0.62518818
       62.37023       67.28779894        0.64603663
       62.46992       67.97021671        0.67163764
       62.56962       71.87900887        0.77625975
       62.66931       71.58309792        0.62402792
       62.76900       76.97771756        0.63130680
       62.86870       85.97278679        0.65359881
       62.96839       94.04974445        0.70635767
       63.06808       98.50277194        0.80503254
       63.16778      106.27913836        0.74322216
       63.26747      110.68911407        0.78543982
       63.36716      113.19378716        0.82458075
       63.46686      116.29103491        0.86125830
       63.56655      118.48850316        0.92387681
       63.66624      127.95038824        0.81724853
       63.76594      141.31189580        0.83606066
       63.86563      156.32921608        0.87875446
       63.96532      166.48433793        0.95045721
       64.06502      172.15944479        1.03638435
       64.16471      174.95888498        0.96686485
       64.26440      165.22534297        0.97663838
       64.36410      153.68651913        0.95924391
       64.46379      138.35747074        0.96023263
       64.56349      125.70615378        0.92972379
       64.66318      107.49650651        0.75031253
       64.76287       88.28586952        0.66949303
       64.86257       74.31258637        0.61189500
       64.96226       65.02208937        0.59861563
       65.06195       59.28451855        0.61747970
       65.16165       57.18336249        0.54686558
       65.26134       54.25111246        0.54485536
       65.36103       53.95247495        0.56694903
       65.46073       53.92151591        0.58540538
       65.56042       55.04921122        0.61790131
       65.66011       56.02515432        0.54363077
       65.75981       56.81034694        0.54202398
       65.85950       58.40141735        0.54620264
       65.95919       61.69040912        0.58796820
       66.05889       64.80943378        0.62367617
       66.15858       70.42037010        0.61878493
       66.25827       77.27651003        0.67111168
       66.35797       84.12386415        0.73021376
       66.45766       94.73506565        0.82473365
       66.55735      106.70723528        0.87670424
       66.65705      121.82442323        0.83290424
       66.75674      135.98560793        0.85938441
       66.85643      151.84635835        0.90002176
       66.95613      161.42393660        0.96627758
       67.05582      168.24059624        0.99493820
       67.15551      169.09406906        0.94933135
       67.25521      164.58264266        0.98240034
       67.35490      155.40263892        1.00358267
       67.45459      140.15757163        1.00281198
       67.55429      127.16947136        0.91342561
       67.65398      105.83044106        0.74440563
       67.75367       89.96025014        0.67900326
       67.85337       80.23137944        0.64811922
       67.95306       75.71336726        0.67274940
       68.05275       76.35407981        0.63978068
       68.15245       78.18234640        0.64199377
       68.25214       87.41457909        0.72159605
       68.35184       92.63984221        0.77480020
       68.45153       99.46818813        0.88477219
       68.55122      105.67644448        0.78638351
       68.65092      115.75332628        0.76835458
       68.75061      124.47227890        0.80610994
       68.85030      128.79380322        0.83635251
       68.95000      126.88128966        0.94086021
       69.04969      124.90157970        0.78812419
       69.14938      115.98833317        0.77987474
       69.24908      104.90088012        0.79066836
       69.34877       95.81520214        0.78044294
       69.44846       87.05431805        0.86167742
       69.54816       77.84073744        0.63434483
       69.64785       68.91454681        0.58761510
       69.74754       61.35765968        0.55934048
       69.84724       56.76284738        0.55159720
       69.94693       53.69683119        0.60515266
       70.04662       50.98626578        0.48469540
       70.14632       48.09037805        0.48924890
       70.24601       47.04164368        0.51801689
       70.34570       47.65280940        0.55176934
       70.44540       46.34530715        0.64098798
       70.54509       48.03517847        0.51093833
       70.64478       48.33091666        0.51180618
       70.74448       50.03464293        0.52915953
       70.84417       49.49960436        0.54610567
       70.94386       49.23302178        0.59782679
       71.04356       50.47549630        0.50101154
       71.14325       51.85970271        0.52785702
       71.24294       52.58871812        0.55935151
       71.34264       54.28510748        0.60277243
       71.44233       53.07120821        0.66492592
       71.54202       54.54565372        0.54894149
       71.64172       54.06197813        0.53156380
       71.74141       52.06969306        0.51203372
       71.84110       51.64110100        0.52781033
       71.94080       51.65240524        0.57521262
       72.04049       51.18880088        0.48463184
       72.14019       51.87276674        0.50836262
       72.23988       51.98795443        0.53250637
       72.33957       52.82113551        0.59964707
       72.43927       51.84430787        0.65384845
       72.53896       52.23304174        0.52624247
       72.63865       53.47035625        0.52054659
       72.73835       53.99284128        0.51162572
       72.83804       56.59716845        0.55338386
       72.93773       59.17690372        0.60133101
       73.03743       59.91652582        0.52528034
       73.13712       61.29761925        0.56042954
       73.23681       62.67620789        0.59550784
       73.33651       63.61074567        0.66024231
       73.43620       63.63000910        0.71524677
       73.53589       63.17924029        0.57488981
       73.63559       63.95240476        0.56939027
       73.73528       64.12039312        0.56756362
       73.83497       65.36402475        0.60764862
       73.93467       64.29283425        0.63447364
       74.03436       64.72720019        0.56344312
       74.13405       63.85526176        0.58334047
       74.23375       64.20439287        0.60932850
       74.33344       63.16397844        0.66521023
       74.43313       65.69099804        0.70424283
       74.53283       66.90058923        0.60396203
       74.63252       69.98372087        0.61357100
       74.73221       72.07580408        0.61985016
       74.83191       76.71336538        0.67889312
       74.93160       78.53868895        0.69486961
       75.03129       80.41684225        0.62528719
       75.13099       84.62167845        0.66484334
       75.23068       89.04776232        0.71188745
       75.33037       94.22164811        0.80558965
       75.43007      100.38644406        0.84435993
       75.52976      106.02742854        0.75438439
       75.62945      115.55018491        0.78804369
       75.72915      123.66847158        0.81307217
       75.82884      129.24080965        0.89569359
       75.92854      133.38967813        0.85477383
       76.02823      141.24837293        0.82598932
       76.12792      147.10755655        0.88188833
       76.22762      151.79329566        0.94587292
       76.32731      149.73532478        1.06061838
       76.42700      151.71057990        1.00794977
       76.52670      148.46405749        0.91938959
       76.62639      143.10158681        0.89045333
       76.72608      133.42106190        0.84420756
       76.82578      129.04564537        0.95600253
       76.92547      126.50411764        0.75784871
       77.02516      124.46931057        0.77886850
       77.12486      124.70502728        0.81898829
       77.22455      127.95442773        0.88379399
       77.32424      131.36567756        1.10074994
       77.42394      132.01861904        0.88117629
       77.52363      132.57822003        0.85337254
       77.62332      134.87596356        0.85710482
       77.72302      140.30513295        0.87693577
       77.82271      143.34511113        1.04001762
       77.92240      141.92538945        0.79223266
       78.02210      141.81743750        0.85450921
       78.12179      141.66993455        0.91217466
       78.22148      137.06788829        0.94808607
       78.32118      132.64266971        1.08143754
       78.42087      127.57788848        0.83402457
       78.52056      122.99418503        0.84504959
       78.62026      117.46654590        0.81863957
       78.71995      110.12723305        0.79436513
       78.81964      104.84678218        0.86502707
       78.91934       96.68009038        0.64278080
       79.01903       86.34760371        0.66485018
       79.11872       81.19465178        0.67038657
       79.21842       73.91569239        0.68150272
       79.31811       70.41312958        0.74880507
       79.41780       67.41121514        0.59403925
       79.51750       66.17509451        0.59792155
       79.61719       65.40290372        0.59609250
       79.71689       65.86593527        0.62112160
       79.81658       65.96828593        0.65894026
       79.91627       64.18381998        0.55077524
       80.01597       62.75433901        0.55963877
       80.11566       62.23633830        0.58255396
       80.21535       63.32934460        0.62828567
       80.31505       64.98750040        0.75681208
       80.41474       66.14251676        0.58680832
       80.51443       67.55679885        0.59059490
       80.61413       72.74516417        0.63374168
       80.71382       77.74265748        0.67830175
       80.81351       84.96252270        0.79777028
       80.91321       91.63058429        0.61160937
       81.01290      109.17166993        0.72274639
       81.11259      130.28842410        0.85509537
       81.21229      143.95244988        0.97421446
       81.31198      159.33244050        1.14601661
       81.41167      177.79895425        0.95050815
       81.51137      202.28604316        1.04686910
       81.61106      213.84645756        1.12572830
       81.71075      228.55794350        1.20712446
       81.81045      237.29208935        1.30465646
       81.91014      255.62852086        1.04403308
       82.00983      272.10144777        1.15408059
       82.10953      277.08399564        1.30363237
       82.20922      286.06769937        1.47509030
       82.30891      286.03292352        1.54651752
       82.40861      289.42733141        1.26571943
       82.50830      278.72646366        1.23676209
       82.60799      282.00350066        1.34077248
       82.70769      279.17385165        1.45112607
       82.80738      281.10022069        1.39171422
       82.90707      275.58688769        1.11805287
       83.00677      272.95573443        1.18525509
       83.10646      264.85233273        1.37221217
       83.20615      255.28298988        1.49750784
       83.30585      242.86882274        1.38123169
       83.40554      226.27366958        1.10574447
       83.50524      209.15783049        1.03476618
       83.60493      191.75680736        1.08872427
       83.70462      175.95596399        1.17322521
       83.80432      164.86636880        0.99087500
       83.90401      141.37610375        0.76692206
       84.00370      119.73348757        0.73364717
       84.10340      101.45949565        0.80466689
       84.20309       93.54396715        0.93683955
       84.30278       84.95542731        0.72507801
       84.40248       78.56772152        0.61476260
       84.50217       71.30851523        0.57386872
       84.60186       67.93446935        0.63300154
       84.70156       66.65643080        0.82032936
       84.80125       65.18856463        0.56466124
       84.90094       65.65815856        0.50911039
       85.00064       63.88224351        0.51723450
       85.10033       64.48379049        0.61507349
       85.20002       63.30942558        1.04505099
       85.29972       65.77520459        0.56214331
       85.39941       65.86438100        0.57352831
       85.49910       66.35074113        0.55984385
       85.59880       67.10981627        0.63319805
       85.69849       65.54778331        1.12319896
       85.79818       64.57268327        0.52550621
       85.89788       64.11045869        0.51107020
       85.99757       63.98348034        0.52459410
       86.09726       62.61901015        0.59571411
       86.19696       61.46373670        1.13332939
       86.29665       61.81847142        0.53790183
       86.39634       60.90043507        0.54307227
       86.49604       60.08234804        0.53117951
       86.59573       57.72906833        0.55454415
       86.69542       57.03596524        1.15231987
       86.79512       55.56826532        0.47202385
       86.89481       54.67915725        0.46156303
       86.99451       53.77265053        0.47437293
       87.09420       51.79694605        0.51906663
       87.19389       52.41886278        1.23704754
       87.29359       51.47270634        0.49671532
       87.39328       50.76465326        0.49989027
       87.49297       48.14489086        0.47237693
       87.59267       49.46234951        0.48832340
       87.69236       47.08297446        1.42503876
       87.79205       49.44554270        0.45510507
       87.89175       49.11584227        0.44990770
       87.99144       50.28011535        0.47442995
       88.09113       49.14191080        0.49842328
       88.19083       50.77648868        2.68178941
       88.29052       49.42669914        0.50304019
       88.39021       47.81900321        0.49795033
       88.48991       48.43927226        0.48103272
       88.58960       49.06142806        0.46887136
       88.68929       44.33653051        3.45002780
       88.78899       49.24632908        0.45343747
       88.88868       49.48784781        0.44463916
       88.98837       50.37716915        0.46667480
       89.08807       49.64988394        0.47448009
       89.18776       49.95083152        3.87251939
       89.28745       49.82441444        0.48293802
       89.38715       51.90534652        0.49816283
       89.48684       53.68430217        0.49594041
       89.58653       55.96676957        0.49628162
       89.68623       55.71738799        4.01410875
       89.78592       58.82606507        0.49463490
       89.88561       60.51626149        0.49198437
       89.98531       64.11717910        0.51959064
       90.08500       68.71101770        0.55829613
       90.18469       78.19095059        4.97519671
       90.28439       72.89386971        0.58770394
       90.38408       77.30390702        0.61583363
       90.48377       82.92116301        0.62642849
       90.58347       89.28499305        0.64048678
       90.68316       92.70043090        5.08656202
       90.78286       90.66853362        0.61796509
       90.88255       93.65584778        0.61143631
       90.98224       97.36773352        0.64543274
       91.08194       99.02767203        0.67245681
       91.18163       99.01169565        5.36555840
       91.28132       99.68194941        0.69472047
       91.38102       99.23430270        0.71149992
       91.48071       96.82463871        0.68528104
       91.58040       92.47701258        0.64722298
       91.68010       85.23239246        4.69492134
       91.77979       89.49068288        0.61088607
       91.87948       86.30247165        0.59032094
       91.97918       81.68470954        0.59589717
       92.07887       80.46101910        0.61594054
       92.17856       75.87084395        4.54410106
       92.27826       78.88746524        0.62972034
       92.37795       76.22901312        0.63341376
       92.47764       75.57979017        0.59866706
       92.57734       78.01508559        0.59029835
       92.67703       76.16003375        3.78473909
       92.77672       80.71775154        0.57896736
       92.87642       82.78419815        0.57533876
       92.97611       85.66580342        0.61143682
       93.07580       88.32312954        0.70890694
       93.17550       90.72598858        1.35159192
       93.27519       89.90700776        0.65942695
       93.37488       92.65914908        0.65105330
       93.47458       96.29099563        0.67140385
       93.57427       96.31119978        0.77631057
       93.67396       96.99305581        1.05294751
       93.77366       96.85015234        0.65178577
       93.87335       96.61295415        0.62179482
       93.97304       94.03259985        0.63899659
       94.07274       90.63702348        0.81401816
       94.17243       89.51314314        0.92285679
       94.27212       90.37872089        0.69077633
       94.37182       91.47913822        0.67744355
       94.47151       90.04636700        0.64351367
       94.57121       86.93739255        0.83405184
       94.67090       86.68312291        0.84243982
       94.77059       85.61929403        0.65073938
       94.87029       81.57459312        0.57719624
       94.96998       75.78680777        0.56283312
       95.06967       71.15336188        0.62817923
       95.16937       70.83121420        0.85792105
       95.26906       66.64734648        0.64243070
       95.36875       64.39123558        0.57276624
       95.46845       61.70453046        0.53859788
       95.56814       60.90378644        0.61564165
       95.66783       58.33480794        0.67660030
       95.76753       57.03280303        0.55271946
       95.86722       55.32389799        0.46291887
       95.96691       52.85323524        0.46911859
       96.06661       51.47557979        0.59292509
       96.16630       54.38372922        0.65023773
       96.26599       51.76080867        0.56944055
       96.36569       52.11041830        0.51270098
       96.46538       49.53233203        0.48219084
       96.56507       47.15410848        0.58044609
       96.66477       47.25502974        0.56621808
       96.76446       46.54572977        0.50210920
       96.86415       47.17269536        0.43789120
       96.96385       47.47684082        0.45375283
       97.06354       47.51977632        0.61384871
       97.16323       48.37768349        0.59229926
       97.26293       48.36945412        0.55641684
       97.36262       48.23824688        0.51454865
       97.46231       48.47179271        0.47453951
       97.56201       49.82331911        0.61223211
       97.66170       50.71690521        0.55489438
       97.76139       51.80262256        0.50957831
       97.86109       51.90672371        0.46125678
       97.96078       54.76828054        0.48439069
       98.06047       56.21265746        0.68179433
       98.16017       55.50244780        0.60217481
       98.25986       57.60328261        0.58618199
       98.35956       57.55072961        0.55315090
       98.45925       60.84749232        0.53119432
       98.55894       63.36905576        0.70744011
       98.65864       65.43026788        0.61700492
       98.75833       67.05174896        0.58377087
       98.85802       70.28785978        0.55838639
       98.95772       71.51346358        0.55959220
       99.05741       71.43629882        0.77642136
       99.15710       73.18842071        0.67606305
       99.25680       76.54007254        0.67019158
       99.35649       78.46305794        0.64648804
       99.45618       81.35961105        0.61379295
       99.55588       84.26443433        0.83506868
       99.65557       85.04313163        0.69218984
       99.75526       86.03979174        0.65266906
       99.85496       86.78054722        0.62394333
       99.95465       84.90637812        0.60486555
      100.05434       86.90957771        0.87208403
      100.15404       85.64904930        0.72904662
      100.25373       85.22395051        0.71847338
      100.35342       85.76913303        0.71801785
      100.45312       85.75287145        0.65512835
      100.55281       84.36863725        0.85327586
      100.65250       82.95765157        0.68912608
      100.75220       80.43335750        0.62826626
      100.85189       80.59303662        0.60092201
      100.95158       78.60962365        0.57742800
      101.05128       80.85209231        0.83522080
      101.15097       78.55650576        0.68015295
      101.25066       79.17282688        0.67470145
      101.35036       77.81304844        0.67452315
      101.45005       77.20288305        0.63173904
      101.54974       73.66113412        0.76812310
      101.64944       74.15656862        0.62885041
      101.74913       75.09105107        0.59633045
      101.84882       76.10205262        0.58447634
      101.94852       76.54188863        0.61749082
      102.04821       76.64538807        0.74426451
      102.14791       78.18664537        0.67764328
      102.24760       79.98726331        0.67982412
      102.34729       78.93756106        0.67247109
      102.44699       80.29578695        0.69018486
      102.54668       80.15823448        0.72358710
      102.64637       80.97540456        0.64962893
      102.74607       83.71522613        0.62936152
      102.84576       83.54464602        0.61676341
      102.94545       85.58009334        0.71121694
      103.04515       85.01914949        0.75036900
      103.14484       85.25880365        0.70209011
      103.24453       83.43605151        0.68361528
      103.34423       82.96555755        0.67611235
      103.44392       85.00204320        0.74157794
      103.54361       85.24772236        0.72147458
      103.64331       85.49551807        0.65771572
      103.74300       86.28225679        0.63033731
      103.84269       86.55943109        0.62044943
      103.94239       84.72887192        0.73744851
      104.04208       83.87975696        0.70974779
      104.14177       83.85635915        0.69042212
      104.24147       81.57455750        0.68035086
      104.34116       83.40067232        0.69241186
      104.44085       81.23752761        0.77585800
      104.54055       79.90019941        0.69648858
      104.64024       79.12360009        0.65141897
      104.73993       78.16855779        0.61776113
      104.83963       74.14652783        0.57925844
      104.93932       72.51677130        0.69427670
      105.03901       72.39430531        0.65361428
      105.13871       70.92509097        0.62277456
      105.23840       70.46994811        0.62036793
      105.33809       70.99037653        0.62638628
      105.43779       70.48329496        0.72615471
      105.53748       67.49872951        0.63694383
      105.63717       66.39295227        0.57892123
      105.73687       63.96758268        0.54056678
      105.83656       62.79544944        0.52178649
      105.93626       61.51265930        0.65429960
      106.03595       61.19651466        0.59145124
      106.13564       58.49510884        0.55862668
      106.23534       58.29098679        0.56449822
      106.33503       57.38776991        0.56567761
      106.43472       55.29395916        0.65620867
      106.53442       54.86179052        0.56849592
      106.63411       53.50647007        0.50988367
      106.73380       54.13471916        0.48886514
      106.83350       55.03376455        0.48562460
      106.93319       55.53395893        0.63243296
      107.03288       56.57412189        0.56584298
      107.13258       56.61116580        0.54941237
      107.23227       57.17299127        0.56019958
      107.33196       56.68808319        0.55624106
      107.43166       56.73010706        0.66860019
      107.53135       58.79205832        0.58746724
      107.63104       58.51525074        0.53363873
      107.73074       60.33854274        0.52005816
      107.83043       61.92504719        0.52033394
      107.93012       62.32963130        0.69062622
      108.02982       63.00238156        0.60780114
      108.12951       63.72137568        0.58135496
      108.22920       62.60064576        0.56687058
      108.32890       64.54600096        0.57031503
      108.42859       65.75492290        0.73071791
      108.52828       65.46947765        0.61845294
      108.62798       66.22786962        0.56409853
      108.72767       65.59872147        0.53880449
      108.82736       65.30160081        0.54939973
      108.92706       65.12617726        0.69485449
      109.02675       64.67934489        0.60574549
      109.12644       64.06449656        0.58833658
      109.22614       64.67907846        0.59167987
      109.32583       64.27618599        0.64269110
      109.42552       64.61213291        0.67972760
      109.52522       64.71605754        0.61375188
      109.62491       64.11137158        0.58098716
      109.72461       62.50533855        0.54830312
      109.82430       62.49262563        0.51213414
      109.92399       60.61107223        0.65555548
      110.02369       61.22204788        0.57702199
      110.12338       59.93298290        0.56706844
      110.22307       58.67130171        0.55674728
      110.32277       60.38747282        0.57695568
      110.42246       58.75411019        0.69176431
      110.52215       57.09534932        0.57740391
      110.62185       56.62960689        0.54191100
      110.72154       56.51233110        0.50504297
      110.82123       54.20168183        0.51061022
      110.92093       55.62851758        0.60347513
      111.02062       56.36989123        0.56129794
      111.12031       56.19381847        0.56458786
      111.22001       56.54739777        0.55578555
      111.31970       57.95816496        0.61080802
      111.41939       58.77012288        0.63654608
      111.51909       58.00358079        0.57373261
      111.61878       58.64591195        0.54351086
      111.71847       62.13352930        0.52080773
      111.81817       63.30900608        0.57069675
      111.91786       65.47595855        0.61100833
      112.01755       67.81112082        0.60740544
      112.11725       69.09490784        0.61790878
      112.21694       72.03764647        0.62841525
      112.31663       72.66104093        0.69554695
      112.41633       74.14956611        0.69043804
      112.51602       77.40746178        0.64998995
      112.61571       80.40734202        0.63226695
      112.71541       82.62195765        0.60422028
      112.81510       85.19535636        0.68826942
      112.91479       87.13522531        0.70928038
      113.01449       88.44431353        0.69991871
      113.11418       88.69059544        0.69857941
      113.21387       89.01987095        0.69673051
      113.31357       89.81771473        0.77733906
      113.41326       90.44557027        0.74139930
      113.51296       91.99044188        0.70351439
      113.61265       92.17459589        0.67952138
      113.71234       92.29978397        0.64951471
      113.81204       93.15062779        0.74763882
      113.91173       91.43135060        0.71754809
      114.01142       89.93984426        0.70432319
      114.11112       89.02522446        0.70025150
      114.21081       88.81427253        0.70445485
      114.31050       88.92647066        0.79939951
      114.41020       89.61879716        0.74164726
      114.50989       88.30277612        0.68903127
      114.60958       87.30048891        0.66287736
      114.70928       86.46234517        0.63616322
      114.80897       85.60693880        0.71784301
      114.90866       87.77405875        0.68584239
      115.00836       85.44069496        0.67323261
      115.10805       88.18099721        0.68799207
      115.20774       88.06618307        0.69793497
      115.30744       89.21340784        0.80671829
      115.40713       89.88340688        0.73351546
      115.50682       90.83825440        0.69627760
      115.60652       90.63932065        0.67029460
      115.70621       91.06137600        0.64574613
      115.80590       92.78523698        0.76063664
      115.90560       95.07069192        0.69812759
      116.00529       95.10485511        0.70604799
      116.10498       96.92906610        0.72045948
      116.20468       97.64783339        0.73981917
      116.30437       99.96591414        0.89266966
      116.40406      100.29068362        0.77878277
      116.50376      103.27471857        0.74719426
      116.60345      104.75219126        0.72254391
      116.70314      108.16414619        0.71235701
      116.80284      114.76411705        0.87283728
      116.90253      116.55967589        0.79152080
      117.00222      119.31818211        0.79486979
      117.10192      123.20357365        0.82989486
      117.20161      125.47382329        0.84802748
      117.30131      128.45062237        1.02725179
      117.40100      130.88473212        0.87211466
      117.50069      134.46229681        0.84005090
      117.60039      141.20030865        0.82476443
      117.70008      145.15745064        0.81067136
      117.79977      149.62316113        1.00931501
      117.89947      153.29486150        0.88867538
      117.99916      155.27307141        0.90535673
      118.09885      159.10319774        0.93423689
      118.19855      163.94439357        0.99408796
      118.29824      165.58141501        1.09550829
      118.39793      168.22810102        1.00299714
      118.49763      173.83276153        0.96299784
      118.59732      176.29494265        0.93669974
      118.69701      178.79542160        0.98310345
      118.79671      177.74863558        1.05822779
      118.89640      177.47128292        0.98582776
      118.99609      177.83408366        0.98583850
      119.09579      177.93660968        0.99763377
      119.19548      175.92326072        1.08352844
      119.29517      179.15076338        1.13659322
      119.39487      177.14005425        1.03860339
      119.49456      175.79121198        0.97479236
      119.59425      173.86607465        0.94117789
      119.69395      167.51331725        0.97361249
      119.79364      164.92721071        0.97591049
      119.89333      159.49851270        0.92798797
      119.99303      157.00255820        0.89855403
      120.09272      152.41198980        0.90480126
      120.19241      149.55128804        1.00694130
      120.29211      145.41311017        0.98210524
      120.39180      139.81827961        0.91790452
      120.49149      137.11616712        0.84502303
      120.59119      132.02846851        0.80413663
      120.69088      126.46410771        0.84642279
      120.79057      125.32435036        0.82435250
      120.89027      123.79708450        0.80416752
      120.98996      122.09792435        0.79226397
      121.08966      120.18336044        0.79165516
      121.18935      120.16930963        0.90738668
      121.28904      119.92264374        0.88343918
      121.38874      118.67498520        0.83088570
      121.48843      114.67471138        0.77091503
      121.58812      114.22066028        0.73374492
      121.68782      115.66733556        0.81819740
      121.78751      114.75867765        0.77647492
      121.88720      114.12684652        0.76435217
      121.98690      114.43719185        0.77116617
      122.08659      112.07030511        0.77811930
      122.18628      110.47144685        0.89595863
      122.28598      109.99116414        0.84064788
      122.38567      108.53285041        0.79956371
      122.48536      106.90089797        0.75041759
      122.58506      107.88245906        0.71409935
      122.68475      107.53424306        0.80784852
      122.78444      105.55400549        0.75338779
      122.88414      106.72525956        0.75127543
      122.98383      105.95918218        0.76381276
      123.08352      104.88300211        0.75328784
      123.18322      103.24571350        0.87144431
      123.28291      103.23157137        0.79195374
      123.38260      103.40546437        0.76519075
      123.48230      102.71347652        0.73494195
      123.58199      100.50073572        0.67923453
      123.68168       99.24914565        0.77007112
      123.78138       97.48478247        0.68835149
      123.88107       95.14266617        0.66404328
      123.98076       92.81351501        0.66773128
      124.08046       89.35735862        0.64789433
      124.18015       90.17255114        0.73676695
      124.27984       88.59360921        0.65411331
      124.37954       86.42737822        0.60942294
      124.47923       84.05139067        0.58647698
      124.57893       80.10056062        0.60955563
