        5.04651       59.00442902        1.18146560
        5.14621       58.22896097        1.13098108
        5.24590       57.28334455        1.10549270
        5.34559       55.81898971        1.00062146
        5.44529       54.30965924        1.07348594
        5.54498       51.45606122        0.87851457
        5.64467       54.12225566        0.89352544
        5.74437       53.14851210        0.79915072
        5.84406       52.78041348        0.80588148
        5.94375       52.32563510        0.80126333
        6.04345       51.86448735        0.77507706
        6.14314       52.18153055        0.71187498
        6.24283       51.30407297        0.72905425
        6.34253       50.89475419        0.69253876
        6.44222       51.74047001        0.73536000
        6.54191       50.27154423        0.68650540
        6.64161       50.91360011        0.65456582
        6.74130       51.30161949        0.65975376
        6.84099       51.78908101        0.65813711
        6.94069       50.71656455        0.66097067
        7.04038       49.14203052        0.60041394
        7.14007       50.38254418        0.60681522
        7.23977       50.21185932        0.59517743
        7.33946       49.95357066        0.60270470
        7.43915       50.05823891        0.59547383
        7.53885       50.37997677        0.58639508
        7.63854       50.62847643        0.56186801
        7.73823       49.54017289        0.57700727
        7.83793       49.59304078        0.55867965
        7.93762       49.55034230        0.58252806
        8.03732       50.68744245        0.52849123
        8.13701       50.07425080        0.52285800
        8.23670       49.61820469        0.52777396
        8.33640       49.48959960        0.52722253
        8.43609       50.52083337        0.55700211
        8.53578       50.75354389        0.52002947
        8.63548       49.63553868        0.50826039
        8.73517       50.84906731        0.50473753
        8.83486       50.35054956        0.50343679
        8.93456       49.49864481        0.49652251
        9.03425       49.95742914        0.48424997
        9.13394       50.97134095        0.49014651
        9.23364       49.84938561        0.49170374
        9.33333       50.00224225        0.50249686
        9.43302       49.96933685        0.50251553
        9.53272       49.60132112        0.48371558
        9.63241       50.76216150        0.50327600
        9.73210       49.71977711        0.49699355
        9.83180       50.33852490        0.52113209
        9.93149       49.84928897        0.51483764
       10.03118       50.43800800        0.49833971
       10.13088       50.63783174        0.48737793
       10.23057       50.66332721        0.51051469
       10.33026       51.19270768        0.53050182
       10.42996       49.96988064        0.51683652
       10.52965       51.61315210        0.50884050
       10.62934       50.71455691        0.50552452
       10.72904       50.95939333        0.51425958
       10.82873       52.47719292        0.51936891
       10.92842       51.82513358        0.52472406
       11.02812       51.32963316        0.49747203
       11.12781       52.52403315        0.52138541
       11.22750       53.01434760        0.52907698
       11.32720       53.49487976        0.54581013
       11.42689       53.18292798        0.52530648
       11.52658       55.40310928        0.52997327
       11.62628       55.25520671        0.53499442
       11.72597       57.48183792        0.55747223
       11.82567       59.58289076        0.58356424
       11.92536       61.28886870        0.55403702
       12.02505       63.28001706        0.56578071
       12.12475       69.19661480        0.59170563
       12.22444       73.43049683        0.64680434
       12.32413       81.36121189        0.69212734
       12.42383       89.30453620        0.68914331
       12.52352      102.05830451        0.73364503
       12.62321      117.31300738        0.81080213
       12.72291      136.83309854        0.85463547
       12.82260      155.11262962        0.99176992
       12.92229      171.75831575        0.95008025
       13.02199      197.90890686        1.01561163
       13.12168      225.83208843        1.10811171
       13.22137      257.57268551        1.22725979
       13.32107      288.24414719        1.34575537
       13.42076      316.36459027        1.36229543
       13.52045      343.85452954        1.44281387
       13.62015      350.81763316        1.41371291
       13.71984      341.91777218        1.45297360
       13.81953      316.22419715        1.41623789
       13.91923      281.57770133        1.24968458
       14.01892      226.62361064        1.08346295
       14.11861      173.51389726        0.98184526
       14.21831      136.49290300        0.86714222
       14.31800      110.30061916        0.81757013
       14.41769       87.25351876        0.69788490
       14.51739       73.54744294        0.62382666
       14.61708       62.23285592        0.57426139
       14.71677       56.29668335        0.55458082
       14.81647       53.21539462        0.56456377
       14.91616       51.56478611        0.51092956
       15.01585       49.79222786        0.51096818
       15.11555       51.22925997        0.52442768
       15.21524       49.41035677        0.53065361
       15.31493       49.76873408        0.54545153
       15.41463       48.84652586        0.52312122
       15.51432       48.27895100        0.50390910
       15.61402       48.10454885        0.51571955
       15.71371       48.13120109        0.51232137
       15.81340       47.41341318        0.52890927
       15.91310       48.39453739        0.51929663
       16.01279       48.27223900        0.49658217
       16.11248       48.52214239        0.51125771
       16.21218       48.67357000        0.52625887
       16.31187       49.08921736        0.52983160
       16.41156       48.94645257        0.51919631
       16.51126       48.31106641        0.52447911
       16.61095       49.64192028        0.51275457
       16.71064       51.04568326        0.53652343
       16.81034       51.66534526        0.54146183
       16.91003       52.54152574        0.53036713
       17.00972       54.72683879        0.51982683
       17.10942       58.10734207        0.56646976
       17.20911       61.70853944        0.58927451
       17.30880       64.88544721        0.60982293
       17.40850       68.65617455        0.62753917
       17.50819       73.29150268        0.63006910
       17.60788       73.70780126        0.65151528
       17.70758       75.23668142        0.66112319
       17.80727       74.71220645        0.66688863
       17.90696       70.99621662        0.60743565
       18.00666       67.73916673        0.60342206
       18.10635       63.67970748        0.56868368
       18.20604       60.34733327        0.60697443
       18.30574       57.32590576        0.56352881
       18.40543       55.46626249        0.54042623
       18.50512       53.35582485        0.54657443
       18.60482       53.19379732        0.53716969
       18.70451       53.20826014        0.56773827
       18.80420       52.15177280        0.52793172
       18.90390       51.45973338        0.51875676
       19.00359       49.12484471        0.49340219
       19.10328       49.71557257        0.52519693
       19.20298       49.36483388        0.53959266
       19.30267       47.21435976        0.50658002
       19.40237       47.29788402        0.50129676
       19.50206       46.24646048        0.50806338
       19.60175       46.86192394        0.50575231
       19.70145       46.32979634        0.52725988
       19.80114       46.36978838        0.50029362
       19.90083       46.32720550        0.48316096
       20.00053       47.04799488        0.49560668
       20.10022       47.74530519        0.50303499
       20.19991       48.53235096        0.54228904
       20.29961       48.63956943        0.51439859
       20.39930       49.55258661        0.53497353
       20.49899       50.70961923        0.53188810
       20.59869       50.83330717        0.54228476
       20.69838       53.35002175        0.57628460
       20.79807       53.64850315        0.55122416
       20.89777       54.85008241        0.54486713
       20.99746       57.57951891        0.56407676
       21.09715       56.93782184        0.59076697
       21.19685       58.27278535        0.59467484
       21.29654       59.20234081        0.58480456
       21.39623       59.00094998        0.58381928
       21.49593       55.92429088        0.55997116
       21.59562       53.57244203        0.56103902
       21.69531       51.23476691        0.57044942
       21.79501       50.10729009        0.51597271
       21.89470       47.85858765        0.49272275
       21.99439       46.92900145        0.50851835
       22.09409       46.43127682        0.50702401
       22.19378       45.77327899        0.53456471
       22.29347       46.82146265        0.50362375
       22.39317       45.95482410        0.51178939
       22.49286       46.55657882        0.51477142
       22.59255       46.81181848        0.52227309
       22.69225       49.10105218        0.56389311
       22.79194       49.32644612        0.50760942
       22.89163       49.28882564        0.49749154
       22.99133       52.10579624        0.52595227
       23.09102       55.85708065        0.56591246
       23.19072       55.86531194        0.56728989
       23.29041       59.53391009        0.57869637
       23.39010       60.00682293        0.58712488
       23.48980       58.53779176        0.58185100
       23.58949       57.50813588        0.58434057
       23.68918       55.59046215        0.60393879
       23.78888       52.24813384        0.52149651
       23.88857       50.70490920        0.52032051
       23.98826       48.89846179        0.52221758
       24.08796       46.79719152        0.50073729
       24.18765       46.19281874        0.53301173
       24.28734       45.57698158        0.50403122
       24.38704       45.18674267        0.51022211
       24.48673       45.57033433        0.51058488
       24.58642       45.87000889        0.52923828
       24.68612       45.28632451        0.52511218
       24.78581       45.55743800        0.48553407
       24.88550       46.54720680        0.49066437
       24.98520       45.71180189        0.50415424
       25.08489       46.43521881        0.51833890
       25.18458       46.92013969        0.53202827
       25.28428       46.93802818        0.51287927
       25.38397       49.02063728        0.52177662
       25.48366       49.84423782        0.52936481
       25.58336       54.24074804        0.57601389
       25.68305       60.78296019        0.59870750
       25.78274       69.21589111        0.60383241
       25.88244       82.38625081        0.67684456
       25.98213      104.85936165        0.77259702
       26.08182      131.75917275        0.89250462
       26.18152      154.75444624        0.99407228
       26.28121      181.72030877        1.02308478
       26.38090      195.75551091        1.07300001
       26.48060      196.69872503        1.10538311
       26.58029      186.63582232        1.12161797
       26.67998      167.59225654        1.00104666
       26.77968      138.05667915        0.89378652
       26.87937      108.71051552        0.77828569
       26.97907       88.01623907        0.69226710
       27.07876       76.30554403        0.69278243
       27.17845       74.31086985        0.65315507
       27.27815       76.86442088        0.64899756
       27.37784       83.41266261        0.70319264
       27.47753       86.34946618        0.70524238
       27.57723       85.67588941        0.73580543
       27.67692       83.27519783        0.70779030
       27.77661       79.90097612        0.66137884
       27.87631       71.13317008        0.61279256
       27.97600       62.52161682        0.58662755
       28.07569       57.23998983        0.59356104
       28.17539       53.29128076        0.54792453
       28.27508       50.56779338        0.53373025
       28.37477       50.68989717        0.54710567
       28.47447       50.23932488        0.54037252
       28.57416       52.33022910        0.59645735
       28.67385       53.48052101        0.53656352
       28.77355       54.88196218        0.53386657
       28.87324       56.55291357        0.55652434
       28.97293       57.80857905        0.56410275
       29.07263       59.35618158        0.62324330
       29.17232       58.39229363        0.56403301
       29.27201       57.39903691        0.56945150
       29.37171       54.05585232        0.56815863
       29.47140       51.57699332        0.54834137
       29.57109       49.06517624        0.56688188
       29.67079       48.71004857        0.51418228
       29.77048       47.27219557        0.50758502
       29.87017       47.76494169        0.50025203
       29.96987       47.51027265        0.52310504
       30.06956       47.86248462        0.54170821
       30.16925       48.37594145        0.51282586
       30.26895       48.31419565        0.51445074
       30.36864       49.78016093        0.53086593
       30.46833       51.21604388        0.54405885
       30.56803       53.88882796        0.58978327
       30.66772       56.84100538        0.56395367
       30.76742       59.78803376        0.56709306
       30.86711       62.19833374        0.59017661
       30.96680       63.98705313        0.60224489
       31.06650       64.35518899        0.63334000
       31.16619       61.70911462        0.58285632
       31.26588       59.46611680        0.56851133
       31.36558       58.88905150        0.57310037
       31.46527       59.09551543        0.59738432
       31.56496       61.52122728        0.61956800
       31.66466       65.98771304        0.60053398
       31.76435       71.80021668        0.62638352
       31.86404       79.75687673        0.65235550
       31.96374       85.93670863        0.69356377
       32.06343       88.65816309        0.72933335
       32.16312       87.41400163        0.68045059
       32.26282       83.42024462        0.68052832
       32.36251       76.64385962        0.67765064
       32.46220       71.12103240        0.66389107
       32.56190       66.07846249        0.65073199
       32.66159       62.99881956        0.60308448
       32.76128       60.25645755        0.57631080
       32.86098       59.67839022        0.58209641
       32.96067       57.74698068        0.57958033
       33.06036       57.28685652        0.58775368
       33.16006       55.64884956        0.54539616
       33.25975       56.03177339        0.56508619
       33.35944       56.20294941        0.56903271
       33.45914       56.63188588        0.59297051
       33.55883       58.88473352        0.60630075
       33.65852       60.48017243        0.57312845
       33.75822       66.00191063        0.59822950
       33.85791       74.29015977        0.63813045
       33.95760       82.15340152        0.69173504
       34.05730       90.81601590        0.72119673
       34.15699      104.71836666        0.76378978
       34.25668      117.55164272        0.80795398
       34.35638      143.23971261        0.91846549
       34.45607      180.31816423        1.09124193
       34.55577      228.45285690        1.17854412
       34.65546      293.74810934        1.29320944
       34.75515      372.51776730        1.49981800
       34.85485      433.88088147        1.61914924
       34.95454      454.66910654        1.71395233
       35.05423      438.48324802        1.73704343
       35.15393      392.21750215        1.53360858
       35.25362      309.42168662        1.36801709
       35.35331      236.32165990        1.21454204
       35.45301      175.41737099        1.08260327
       35.55270      132.14462242        0.90924893
       35.65239      101.81301953        0.76737426
       35.75209       85.37389324        0.69582686
       35.85178       78.77463284        0.66682411
       35.95147       73.34204721        0.65799262
       36.05117       69.04458583        0.62484531
       36.15086       65.03803116        0.58273033
       36.25055       61.27882323        0.59058748
       36.35025       59.65767904        0.59397621
       36.44994       57.72603421        0.59576612
       36.54963       55.96803069        0.56296561
       36.64933       55.18430011        0.55059483
       36.74902       54.58269959        0.55325031
       36.84871       53.97485828        0.54613478
       36.94841       52.31053578        0.58126721
       37.04810       51.60209465        0.50898624
       37.14779       51.12059831        0.51695117
       37.24749       49.71892946        0.52386898
       37.34718       49.63321017        0.53676124
       37.44687       48.90982819        0.57229871
       37.54657       48.95358883        0.52270887
       37.64626       47.98675155        0.51545042
       37.74595       48.01183052        0.50752590
       37.84565       47.44814671        0.53379428
       37.94534       47.71685159        0.54536420
       38.04503       48.35888460        0.49627466
       38.14473       49.05644502        0.50480065
       38.24442       47.71918881        0.50685430
       38.34412       49.29800290        0.53875170
       38.44381       49.24862345        0.58225105
       38.54350       49.17393298        0.51862491
       38.64320       50.47076785        0.52394453
       38.74289       52.21243333        0.54004113
       38.84258       53.62186512        0.54873907
       38.94228       55.86308250        0.58768784
       39.04197       60.33069946        0.55112815
       39.14166       65.47822303        0.59779340
       39.24136       69.29036282        0.61368401
       39.34105       70.97233066        0.64292417
       39.44074       72.15843545        0.70725635
       39.54044       72.52265975        0.63401532
       39.64013       69.82495310        0.61992671
       39.73982       66.13111709        0.60537116
       39.83952       63.36837398        0.58831306
       39.93921       60.70836364        0.61029173
       40.03890       58.53793356        0.54835863
       40.13860       56.30747805        0.53690900
       40.23829       56.06911175        0.55470316
       40.33798       56.55430173        0.57451263
       40.43768       56.26344567        0.59951876
       40.53737       57.00825944        0.56017377
       40.63706       57.18014578        0.57281382
       40.73676       58.55338316        0.57886832
       40.83645       60.22698849        0.59215494
       40.93614       63.40052033        0.61807222
       41.03584       68.22990656        0.60388955
       41.13553       76.68854030        0.64183291
       41.23522       90.87899743        0.71727753
       41.33492      109.99908711        0.82851860
       41.43461      133.37807811        0.94492380
       41.53430      156.80132441        0.96280698
       41.63400      182.32683808        1.06488576
       41.73369      196.71660108        1.08415049
       41.83338      206.68719396        1.14268022
       41.93308      211.00316763        1.14504212
       42.03277      212.04661054        1.04923973
       42.13247      232.06278639        1.15694459
       42.23216      275.99866998        1.27175741
       42.33185      345.87599807        1.54296372
       42.43155      419.02952847        1.68950860
       42.53124      497.57843641        1.80080912
       42.63093      558.36601211        1.92604684
       42.73063      590.00448248        1.99694709
       42.83032      569.16536339        1.99074844
       42.93001      522.25810908        1.82449491
       43.02971      427.57120411        1.54031985
       43.12940      325.96689490        1.35369672
       43.22909      239.13986773        1.20423869
       43.32879      176.11249750        1.07907290
       43.42848      133.25434711        0.91241756
       43.52817       99.56461428        0.75084950
       43.62787       80.15749463        0.66952911
       43.72756       70.64141658        0.64249414
       43.82725       65.23367220        0.64416238
       43.92695       60.86314495        0.56383427
       44.02664       57.76724388        0.54640373
       44.12633       56.84480094        0.56214439
       44.22603       57.43703108        0.58821731
       44.32572       55.97916230        0.61188565
       44.42541       55.71098853        0.58277108
       44.52511       55.98922436        0.56853787
       44.62480       56.47400379        0.57911409
       44.72449       59.35767960        0.57564301
       44.82419       61.38498273        0.65709079
       44.92388       65.57813544        0.56681494
       45.02357       74.08161650        0.60821303
       45.12327       84.90315384        0.67179657
       45.22296      100.04079098        0.75016745
       45.32265      117.77826916        0.90278244
       45.42235      139.36413603        0.89703102
       45.52204      169.99243476        0.98525646
       45.62174      205.57134348        1.10906900
       45.72143      238.74085143        1.20114437
       45.82112      258.58609584        1.37256059
       45.92082      275.21305139        1.20529306
       46.02051      267.13662904        1.21130152
       46.12020      252.30330069        1.17837315
       46.21990      221.70522742        1.15528022
       46.31959      189.61842560        1.14804262
       46.41928      162.28031297        0.97689016
       46.51898      127.82472103        0.86719758
       46.61867      101.15393546        0.76441116
       46.71836       83.31548426        0.70963060
       46.81806       71.76245253        0.68169273
       46.91775       63.35014961        0.55755632
       47.01744       60.39731193        0.55713365
       47.11714       60.90724794        0.57230844
       47.21683       64.33998396        0.60586732
       47.31652       72.89976105        0.70454564
       47.41622       82.78755061        0.70864611
       47.51591       95.04523224        0.76211435
       47.61560      112.21063218        0.82330732
       47.71530      132.34671467        0.90657397
       47.81499      150.07405672        0.99233629
       47.91468      170.02515200        0.92683125
       48.01438      191.15755746        0.98644282
       48.11407      195.73152493        1.03621160
       48.21376      194.05191769        1.07693279
       48.31346      180.70856192        1.07399698
       48.41315      163.25644309        0.94894641
       48.51284      139.70550310        0.90373291
       48.61254      114.80923398        0.81276839
       48.71223       95.87256017        0.75399465
       48.81192       81.04817268        0.69002303
       48.91162       66.11336514        0.55734674
       49.01131       59.87279938        0.54846006
       49.11100       54.94454150        0.54390019
       49.21070       53.18889867        0.56167527
       49.31039       51.88310650        0.57080213
       49.41009       50.14077606        0.52993981
       49.50978       49.26543037        0.53608200
       49.60947       48.50991211        0.53577926
       49.70917       49.23786880        0.55987031
       49.80886       48.87339478        0.54283764
       49.90855       49.61373690        0.49828554
       50.00825       50.27712895        0.51225956
       50.10794       50.79649267        0.52666434
       50.20763       51.24542638        0.55271156
       50.30733       51.67690649        0.58143454
       50.40702       53.82877261        0.55669406
       50.50671       54.55775891        0.56216787
       50.60641       55.53937103        0.56810272
       50.70610       56.93323222        0.59198949
       50.80579       57.63556522        0.58784111
       50.90549       56.42748348        0.52429492
       51.00518       55.46449679        0.52432290
       51.10487       55.51032088        0.54221636
       51.20457       55.30311759        0.57613892
       51.30426       55.42647940        0.57379310
       51.40395       57.01722067        0.55807083
       51.50365       57.74938020        0.56812913
       51.60334       59.41623731        0.58782039
       51.70303       60.15185275        0.62816460
       51.80273       60.68210655        0.57878384
       51.90242       61.32690337        0.54368948
       52.00211       61.66456601        0.54779433
       52.10181       61.82158280        0.56586656
       52.20150       62.98002476        0.62911102
       52.30119       62.40218423        0.60317522
       52.40089       63.21552414        0.59767112
       52.50058       61.96777286        0.60279228
       52.60027       61.28233586        0.60756476
       52.69997       60.53217554        0.66166284
       52.79966       59.17136431        0.54986267
       52.89935       62.76478593        0.54676404
       52.99905       69.33631714        0.58470114
       53.09874       80.92402398        0.65327134
       53.19844       93.29470330        0.80481945
       53.29813      108.44920543        0.77299093
       53.39782      121.38172529        0.84767467
       53.49752      136.12744158        0.90384882
       53.59721      152.75724238        0.95927036
       53.69690      157.89029162        1.07091894
       53.79660      162.98042432        0.91216427
       53.89629      161.09491970        0.89681025
       53.99598      152.21263098        0.89177125
       54.09568      137.55244928        0.88319668
       54.19537      123.09430818        0.90910067
       54.29506      111.40693178        0.79307994
       54.39476      100.18706866        0.75656112
       54.49445       93.74832612        0.73162972
       54.59414       87.47388812        0.71675561
       54.69384       86.28180315        0.75927551
       54.79353       83.92664920        0.64191119
       54.89322       81.48766284        0.62998630
       54.99292       77.83079016        0.63333411
       55.09261       73.82483258        0.64103313
       55.19230       68.76156779        0.66381154
       55.29200       65.82464695        0.60421082
       55.39169       61.38809844        0.60161782
       55.49138       60.40195140        0.59446183
       55.59108       57.28995210        0.59719704
       55.69077       55.23995763        0.60160777
       55.79046       54.77616791        0.52371949
       55.89016       54.49268976        0.52108894
       55.98985       56.29171410        0.53318189
       56.08954       59.27828794        0.56546422
       56.18924       62.50203711        0.62696591
       56.28893       70.21161921        0.60895735
       56.38862       79.43762203        0.67101243
       56.48832       90.45045141        0.72962294
       56.58801      101.59018401        0.79702628
       56.68770      109.31964107        0.85438222
       56.78740      112.88864712        0.74346704
       56.88709      113.76513487        0.75391139
       56.98679      109.39101603        0.73943104
       57.08648       99.90100965        0.74793802
       57.18617       89.45118550        0.73159218
       57.28587       79.42170021        0.64304717
       57.38556       70.06898867        0.64198650
       57.48525       62.78310132        0.61862751
       57.58495       58.39458914        0.60984747
       57.68464       55.83766991        0.60129242
       57.78433       52.76280175        0.51105385
       57.88403       53.04721503        0.51842906
       57.98372       51.89951752        0.52085199
       58.08341       52.62537283        0.56715778
       58.18311       52.32315696        0.57846661
       58.28280       52.96313525        0.54823416
       58.38249       53.40612806        0.57528805
       58.48219       53.13571724        0.58619326
       58.58188       51.74071548        0.58463186
       58.68157       52.55964211        0.57748745
       58.78127       52.52060140        0.50493875
       58.88096       53.81907076        0.50371409
       58.98065       55.89485074        0.53307416
       59.08035       57.00489260        0.57454763
       59.18004       58.17313831        0.58888389
       59.27973       59.96491840        0.56426693
       59.37943       63.33280275        0.59935422
       59.47912       66.60782561        0.64020061
       59.57881       70.50498717        0.69045204
       59.67851       75.55827555        0.66693813
       59.77820       83.45996546        0.64520304
       59.87789       91.09546001        0.67250064
       59.97759       99.20512504        0.73509311
       60.07728      104.11547424        0.81614406
       60.17697      105.58134358        0.78310893
       60.27667      108.37271470        0.77172571
       60.37636      105.77065450        0.77684929
       60.47605      103.68129543        0.80211885
       60.57575       98.94422505        0.85810003
       60.67544       94.12406741        0.71848399
       60.77514       86.45401557        0.65381288
       60.87483       77.26985844        0.60520671
       60.97452       72.30736557        0.61627297
       61.07422       68.45979327        0.67320798
       61.17391       66.74381786        0.57563446
       61.27360       64.61991605        0.58629960
       61.37330       66.64678942        0.61772224
       61.47299       68.37108301        0.65335316
       61.57268       68.78457612        0.74527509
       61.67238       69.01578512        0.60845998
       61.77207       70.75918037        0.60021374
       61.87176       71.10176572        0.59499658
       61.97146       69.22388072        0.60932416
       62.07115       69.45793639        0.69129421
       62.17084       68.25572888        0.60027053
       62.27054       65.65639031        0.61358462
       62.37023       63.70072115        0.62824192
       62.46992       62.79674558        0.64504647
       62.56962       63.39420874        0.72799703
       62.66931       63.57651088        0.58732940
       62.76900       66.66569795        0.58650544
       62.86870       73.30239289        0.60225252
       62.96839       82.79841205        0.66153682
       63.06808       88.74099306        0.76288769
       63.16778       97.47985630        0.71077900
       63.26747      109.07375291        0.77953490
       63.36716      117.47319293        0.84070017
       63.46686      129.35367845        0.91042622
       63.56655      137.89460335        1.00001988
       63.66624      153.35029418        0.89860087
       63.76594      168.45630356        0.91706723
       63.86563      182.21760942        0.95290838
       63.96532      186.79862834        1.01026161
       64.06502      185.50671342        1.07828190
       64.16471      176.21147388        0.97059702
       64.26440      160.08079207        0.96056196
       64.36410      141.25842195        0.91779478
       64.46379      121.98582533        0.89921307
       64.56349      108.95238258        0.86316449
       64.66318       93.57889833        0.69845245
       64.76287       77.75222894        0.62720004
       64.86257       68.29690293        0.58604454
       64.96226       62.51883839        0.58677285
       65.06195       59.32993651        0.61777071
       65.16165       54.74115172        0.53487692
       65.26134       53.82080488        0.54269344
       65.36103       53.05285803        0.56216001
       65.46073       53.88044644        0.58522538
       65.56042       53.89559253        0.61131957
       65.66011       55.64277300        0.54178012
       65.75981       57.27209330        0.54430961
       65.85950       59.62938909        0.55207684
       65.95919       61.81251627        0.58860953
       66.05889       64.32858863        0.62135647
       66.15858       69.57067577        0.61499961
       66.25827       79.98428085        0.68314088
       66.35797       89.28199434        0.75299323
       66.45766      101.82330437        0.85613484
       66.55735      114.14457042        0.90796167
       66.65705      130.15974702        0.86220962
       66.75674      145.11955192        0.88921302
       66.85643      158.77930738        0.92148020
       66.95613      166.32964321        0.98173072
       67.05582      170.42131807        1.00180740
       67.15551      169.37839416        0.95024780
       67.25521      162.94645745        0.97731360
       67.35490      147.09497733        0.97510512
       67.45459      130.98726646        0.96802846
       67.55429      115.95350955        0.87062770
       67.65398       97.57702162        0.71384026
       67.75367       84.42936249        0.65722799
       67.85337       76.05913820        0.63064004
       67.95306       76.11521056        0.67463291
       68.05275       76.84741441        0.64195001
       68.15245       83.40876843        0.66375375
       68.25214       92.93648303        0.74480162
       68.35184       99.09101965        0.80227152
       68.45153      105.70864373        0.91314812
       68.55122      111.42758514        0.80835310
       68.65092      122.30065036        0.79072557
       68.75061      127.29520936        0.81565323
       68.85030      129.32230049        0.83820739
       68.95000      127.88390822        0.94480464
       69.04969      122.37361069        0.77983519
       69.14938      110.59380220        0.76088542
       69.24908       96.09540622        0.75567990
       69.34877       87.66982483        0.74555209
       69.44846       79.09884220        0.82030633
       69.54816       72.37763564        0.61115363
       69.64785       63.60324874        0.56404487
       69.74754       57.08035817        0.53913628
       69.84724       53.81050784        0.53682932
       69.94693       51.72602481        0.59378835
       70.04662       50.32828351        0.48154155
       70.14632       48.18888457        0.48979764
       70.24601       48.30378533        0.52507772
       70.34570       47.98423608        0.55376140
       70.44540       47.55597145        0.64949529
       70.54509       48.69741630        0.51454904
       70.64478       49.21428409        0.51658322
       70.74448       49.09467372        0.52412218
       70.84417       50.05812722        0.54927557
       70.94386       51.49268505        0.61168148
       71.04356       50.68564099        0.50211220
       71.14325       52.65813671        0.53202154
       71.24294       53.89598420        0.56643516
       71.34264       53.86585260        0.60044497
       71.44233       54.64922817        0.67497803
       71.54202       55.44356774        0.55357203
       71.64172       54.27511565        0.53267320
       71.74141       54.08152153        0.52205598
       71.84110       53.00427349        0.53490088
       71.94080       51.80899376        0.57614597
       72.04049       53.19015207        0.49422638
       72.14019       51.90071883        0.50854303
       72.23988       51.96973253        0.53245427
       72.33957       51.08496689        0.58957975
       72.43927       53.72417493        0.66586791
       72.53896       53.55595601        0.53303017
       72.63865       53.68806140        0.52166695
       72.73835       54.65924075        0.51487434
       72.83804       57.56215779        0.55821977
       72.93773       60.35642917        0.60746719
       73.03743       61.66932742        0.53311272
       73.13712       63.67014084        0.57145254
       73.23681       65.48668216        0.60905768
       73.33651       66.32288523        0.67454070
       73.43620       66.22619772        0.73007835
       73.53589       66.72035123        0.59119005
       73.63559       66.48130733        0.58083925
       73.73528       67.02573711        0.58061741
       73.83497       65.72996346        0.60943461
       73.93467       65.73901118        0.64178157
       74.03436       63.46269292        0.55783515
       74.13405       61.39608131        0.57180020
       74.23375       60.05468340        0.58893286
       74.33344       60.19075338        0.64908358
       74.43313       59.62132598        0.67026945
       74.53283       61.21028020        0.57718446
       74.63252       61.75248803        0.57558700
       74.73221       63.68303227        0.58184803
       74.83191       68.08482920        0.63867525
       74.93160       71.71955268        0.66329261
       75.03129       74.84813122        0.60271944
       75.13099       81.45459977        0.65198078
       75.23068       89.69211566        0.71459417
       75.33037       97.39164944        0.81953822
       75.43007      105.15529417        0.86495448
       75.52976      115.71298860        0.78944942
       75.62945      130.13028107        0.83841847
       75.72915      140.03029039        0.86765000
       75.82884      148.01175927        0.96164588
       75.92854      148.75106346        0.90505954
       76.02823      154.97383753        0.86725508
       76.12792      158.88365361        0.91838975
       76.22762      159.25044955        0.97011488
       76.32731      154.24110802        1.07735572
       76.42700      150.69874017        1.00449063
       76.52670      144.62080203        0.90689654
       76.62639      130.90183420        0.84996821
       76.72608      118.80803966        0.79473136
       76.82578      112.91973680        0.89190688
       76.92547      110.26494882        0.70564584
       77.02516      110.98714687        0.73385474
       77.12486      114.24370889        0.78255642
       77.22455      122.23033729        0.86303079
       77.32424      129.50839824        1.09268377
       77.42394      136.38531405        0.89636117
       77.52363      140.86457500        0.88093561
       77.62332      148.15964750        0.90040228
       77.72302      155.30505448        0.92502150
       77.82271      159.00088363        1.09830651
       77.92240      161.47011139        0.84786439
       78.02210      161.22674438        0.91415181
       78.12179      155.09621984        0.95664940
       78.22148      146.26300282        0.98096431
       78.32118      139.02872515        1.10844412
       78.42087      129.46911384        0.84051832
       78.52056      118.89349134        0.83033109
       78.62026      107.29114655        0.78108933
       78.71995       96.93719456        0.74366233
       78.81964       90.42919240        0.80144042
       78.91934       80.37028007        0.58447081
       79.01903       73.19325067        0.61078291
       79.11872       67.50537115        0.60987622
       79.21842       63.47736477        0.63046551
       79.31811       62.84652738        0.70656159
       79.41780       62.29110195        0.57057501
       79.51750       61.93805195        0.57808613
       79.61719       61.12635834        0.57589488
       79.71689       62.11131556        0.60281580
       79.81658       63.79335423        0.64779535
       79.91627       62.72650851        0.54439316
       80.01597       62.21801231        0.55723526
       80.11566       63.16654167        0.58703287
       80.21535       64.75324703        0.63551699
       80.31505       64.62423700        0.75470713
       80.41474       65.45192595        0.58371407
       80.51443       68.02807342        0.59274704
       80.61413       70.32855662        0.62291663
       80.71382       74.17714898        0.66221121
       80.81351       78.16662597        0.76436800
       80.91321       83.79296773        0.58412904
       81.01290       95.83545389        0.67567936
       81.11259      111.76392875        0.78955641
       81.21229      128.03996541        0.91640301
       81.31198      138.41617274        1.06448843
       81.41167      158.70013357        0.89522029
       81.51137      182.62244317        0.99153203
       81.61106      201.53086560        1.09070156
       81.71075      218.61768523        1.17875217
       81.81045      230.65033323        1.28497202
       81.91014      258.31946771        1.05005053
       82.00983      283.01956258        1.17916490
       82.10953      304.41458124        1.37251379
       82.20922      314.11893215        1.55278047
       82.30891      321.67750079        1.64952884
       82.40861      329.12452871        1.35839673
       82.50830      324.03532439        1.34328555
       82.60799      323.74618620        1.44629371
       82.70769      318.76801428        1.56057977
       82.80738      313.59349658        1.47771971
       82.90707      303.56506469        1.17879790
       83.00677      288.52727009        1.22174021
       83.10646      269.79126895        1.38615642
       83.20615      254.00992124        1.49357340
       83.30585      239.40428047        1.37067479
       83.40554      213.48392826        1.07187113
       83.50524      191.18713330        0.98646030
       83.60493      166.85805585        1.01146870
       83.70462      149.91209532        1.07830426
       83.80432      136.25207708        0.89654678
       83.90401      113.80874710        0.68495267
       84.00370       95.19388900        0.65148395
       84.10340       82.75030953        0.72443329
       84.20309       77.51874306        0.85055302
       84.30278       72.49920148        0.66843671
       84.40248       68.28871178        0.57217065
       84.50217       64.46358964        0.54503056
       84.60186       63.94110597        0.61374089
       84.70156       65.16786066        0.81097441
       84.80125       63.79723832        0.55851347
       84.90094       64.74324091        0.50551149
       85.00064       63.07428207        0.51392267
       85.10033       64.39999613        0.61471416
       85.20002       63.20433260        1.04424812
       85.29972       65.87738792        0.56263486
       85.39941       65.79013884        0.57324362
       85.49910       66.21157154        0.55928783
       85.59880       66.83516852        0.63192175
       85.69849       65.16172054        1.11990155
       85.79818       65.16791919        0.52801940
       85.89788       64.31062563        0.51192621
       85.99757       64.76032684        0.52788236
       86.09726       64.44704543        0.60458643
       86.19696       63.66521431        1.15397918
       86.29665       63.74369352        0.54643932
       86.39634       63.38560460        0.55432477
       86.49604       62.21432485        0.54076445
       86.59573       59.52489124        0.56332383
       86.69542       58.45191368        1.16691565
       86.79512       56.85303710        0.47759416
       86.89481       56.46216223        0.46921085
       86.99451       55.71275814        0.48305609
       87.09420       55.05372328        0.53548179
       87.19389       52.74796055        1.24109558
       87.29359       53.45552333        0.50640708
       87.39328       52.29819587        0.50756064
       87.49297       49.70976573        0.48016174
       87.59267       49.66956111        0.48940229
       87.69236       49.00000079        1.45436199
       87.79205       49.70240750        0.45634283
       87.89175       50.42273173        0.45599432
       87.99144       51.48735753        0.48023113
       88.09113       51.29012943        0.50943202
       88.19083       49.41613010        2.64520991
       88.29052       50.94659614        0.51089202
       88.39021       48.60578339        0.50213925
       88.48991       49.11039263        0.48444915
       88.58960       49.75293513        0.47225892
       88.68929       51.93797957        3.73932319
       88.78899       50.21715698        0.45799929
       88.88868       49.83899233        0.44627708
       88.98837       49.90121264        0.46446411
       89.08807       49.61823643        0.47436451
       89.18776       46.51478561        3.73502488
       89.28745       49.13956512        0.47958912
       89.38715       51.23235732        0.49490487
       89.48684       52.62756189        0.49098457
       89.58653       56.78176000        0.49999284
       89.68623       60.65524783        4.19212522
       89.78592       59.87869370        0.49917183
       89.88561       61.57748501        0.49641040
       89.98531       65.89427166        0.52694603
       90.08500       72.39416579        0.57347411
       90.18469       80.00306680        5.03448806
       90.28439       78.16095600        0.60916720
       90.38408       83.47212068        0.64066120
       90.48377       90.68851759        0.65603647
       90.58347       94.13644900        0.65825634
       90.68316       98.26971589        5.24253472
       90.78286       97.80644092        0.64266415
       90.88255       98.32314267        0.62703619
       90.98224      100.81062337        0.65718308
       91.08194      101.61267541        0.68153177
       91.18163      106.71267822        5.57807606
       91.28132      100.55604298        0.69791921
       91.38102       98.46604142        0.70870363
       91.48071       96.89282710        0.68558471
       91.58040       88.85817357        0.63409034
       91.68010       92.33211998        4.89288832
       91.77979       82.91392204        0.58739437
       91.87948       79.77629169        0.56697186
       91.97918       74.59776072        0.56881259
       92.07887       71.75603123        0.58084374
       92.17856       72.38104040        4.43605234
       92.27826       70.51781985        0.59456867
       92.37795       69.94496349        0.60613610
       92.47764       69.84249798        0.57497352
       92.57734       72.77758014        0.56967117
       92.67703       82.65111089        3.94744441
       92.77672       77.44241236        0.56682516
       92.87642       83.20266453        0.57687852
       92.97611       87.86265998        0.61950984
       93.07580       92.65483865        0.72667928
       93.17550       93.47018538        1.37263415
       93.27519       94.79025068        0.67771834
       93.37488       96.89954537        0.66631973
       93.47458      101.24338979        0.68909020
       93.57427      103.28215344        0.80493535
       93.67396      104.32191244        1.09345720
       93.77366      103.52953741        0.67470888
       93.87335      101.66110930        0.63843345
       93.97304       99.60957729        0.65835211
       94.07274       93.50114844        0.82725077
       94.17243       91.39088998        0.93286021
       94.27212       90.47206248        0.69119899
       94.37182       87.87301298        0.66359960
       94.47151       83.93989872        0.62071005
       94.57121       81.42887716        0.80649746
       94.67090       79.80704015        0.80744726
       94.77059       78.06308011        0.62060475
       94.87029       71.15176897        0.53813921
       94.96998       67.38781093        0.53000448
       95.06967       64.61390887        0.59798944
       95.16937       65.15392093        0.82208088
       95.26906       62.94838937        0.62399983
       95.36875       62.03690568        0.56201410
       95.46845       60.80314834        0.53460907
       95.56814       58.90938027        0.60531730
       95.66783       59.13809004        0.68139239
       95.76753       57.85867567        0.55683140
       95.86722       54.58011746        0.45977432
       95.96691       54.17398274        0.47509091
       96.06661       54.18047568        0.60863850
       96.16630       53.45494185        0.64460940
       96.26599       52.43646908        0.57325851
       96.36569       51.75487693        0.51095861
       96.46538       50.87251862        0.48882374
       96.56507       48.92971261        0.59150378
       96.66477       47.97131073        0.57061034
       96.76446       47.14102347        0.50540296
       96.86415       48.22239741        0.44285297
       96.96385       48.45804077        0.45853288
       97.06354       48.53083809        0.62050375
       97.16323       49.93484921        0.60196751
       97.26293       50.48869016        0.56873064
       97.36262       49.09748676        0.51923051
       97.46231       48.88285167        0.47661989
       97.56201       51.01939116        0.61971590
       97.66170       50.79460436        0.55537155
       97.76139       52.12841700        0.51124832
       97.86109       53.81771931        0.46986444
       97.96078       54.69830693        0.48411427
       98.06047       55.84390651        0.67956567
       98.16017       55.17271078        0.60039743
       98.25986       56.96953619        0.58293142
       98.35956       56.00767041        0.54558297
       98.45925       59.19115306        0.52380652
       98.55894       61.67199137        0.69775425
       98.65864       63.04473365        0.60545172
       98.75833       64.14754314        0.57074796
       98.85802       67.37885656        0.54647880
       98.95772       70.33304422        0.55488610
       99.05741       70.71830203        0.77247589
       99.15710       73.12832070        0.67583249
       99.25680       75.99444895        0.66778922
       99.35649       78.96838633        0.64867466
       99.45618       81.29687706        0.61359862
       99.55588       84.35170801        0.83558014
       99.65557       86.35333426        0.69771388
       99.75526       86.99933256        0.65645864
       99.85496       88.09768444        0.62885258
       99.95465       87.00400942        0.61256077
      100.05434       88.72348554        0.88148195
      100.15404       87.34289209        0.73649289
      100.25373       88.35919915        0.73202145
      100.35342       87.48584949        0.72543930
      100.45312       86.54113777        0.65827395
      100.55281       84.85165141        0.85585405
      100.65250       84.01320773        0.69367744
      100.75220       80.77223109        0.62967527
      100.85189       77.92872843        0.59068223
      100.95158       77.01539379        0.57143174
      101.05128       76.29868103        0.81079083
      101.15097       75.47770464        0.66639160
      101.25066       74.97239028        0.65613787
      101.35036       75.82204837        0.66566287
      101.45005       75.48078999        0.62451833
      101.54974       73.50198605        0.76733323
      101.64944       73.39217582        0.62556866
      101.74913       76.50472278        0.60211218
      101.84882       78.36439141        0.59337859
      101.94852       80.38995179        0.63329182
      102.04821       82.02229967        0.77070183
      102.14791       82.09474846        0.69489455
      102.24760       85.78222426        0.70477675
      102.34729       84.73668325        0.69748479
      102.44699       86.30765446        0.71635216
      102.54668       87.11065604        0.75527537
      102.64637       89.59855398        0.68441008
      102.74607       89.35268413        0.65088792
      102.84576       91.10650000        0.64495822
      102.94545       90.99013203        0.73409136
      103.04515       90.20609646        0.77366899
      103.14484       89.09369749        0.71823549
      103.24453       87.65990364        0.70126905
      103.34423       86.14095363        0.68935996
      103.44392       87.88308427        0.75447340
      103.54361       87.02840479        0.72925160
      103.64331       87.42566399        0.66537176
      103.74300       86.01044938        0.62936448
      103.84269       85.74579465        0.61748954
      103.94239       83.87755527        0.73368568
      104.04208       82.67465028        0.70454126
      104.14177       81.86477000        0.68199524
      104.24147       81.93524696        0.68194998
      104.34116       81.25069585        0.68323100
      104.44085       81.30066399        0.77622979
      104.54055       80.71089356        0.70016649
      104.64024       78.53038120        0.64895805
      104.73993       76.73527760        0.61196937
      104.83963       74.14451449        0.57929672
      104.93932       71.34583214        0.68856476
      105.03901       72.60975523        0.65466285
      105.13871       70.43895498        0.62063426
      105.23840       69.23119169        0.61480908
      105.33809       67.76114337        0.61168205
      105.43779       67.59998426        0.71085026
      105.53748       65.49146619        0.62723459
      105.63717       62.83663368        0.56290218
      105.73687       60.59993602        0.52588095
      105.83656       59.53358827        0.50780809
      105.93626       57.44340263        0.63189294
      106.03595       56.84157272        0.56963432
      106.13564       54.17426955        0.53723985
      106.23534       54.89996028        0.54755490
      106.33503       53.38176202        0.54524183
      106.43472       51.89601952        0.63540288
      106.53442       50.81938460        0.54681130
      106.63411       51.15046050        0.49836804
      106.73380       50.19842814        0.47047282
      106.83350       51.14014067        0.46785221
      106.93319       53.16494439        0.61859220
      107.03288       53.19660073        0.54841539
      107.13258       54.36036470        0.53821290
      107.23227       54.14803989        0.54493657
      107.33196       53.51309344        0.54018575
      107.43166       55.29674194        0.65998877
      107.53135       56.73321525        0.57692996
      107.63104       57.21141657        0.52758328
      107.73074       59.83262270        0.51786959
      107.83043       61.58028045        0.51889419
      107.93012       62.38270116        0.69098201
      108.02982       64.98422008        0.61754783
      108.12951       64.50648664        0.58505176
      108.22920       65.81514303        0.58161224
      108.32890       66.89666446        0.58088953
      108.42859       68.30052378        0.74511503
      108.52828       69.35077415        0.63699889
      108.62798       71.64085441        0.58729370
      108.72767       71.33099160        0.56245404
      108.82736       71.38192789        0.57505735
      108.92706       70.96154651        0.72610561
      109.02675       69.40280406        0.62803648
      109.12644       68.99411237        0.61112164
      109.22614       69.13919295        0.61226057
      109.32583       69.68099961        0.66984527
      109.42552       69.14152635        0.70375549
      109.52522       68.97443847        0.63413983
      109.62491       66.73939692        0.59309210
      109.72461       65.80175261        0.56294136
      109.82430       62.43084604        0.51191658
      109.92399       61.85367690        0.66243684
      110.02369       60.65483300        0.57433255
      110.12338       60.10754578        0.56795648
      110.22307       58.79913002        0.55741061
      110.32277       57.56391894        0.56307576
      110.42246       57.76565254        0.68585840
      110.52215       56.90743285        0.57648055
      110.62185       56.45147488        0.54108487
      110.72154       55.36360392        0.49982434
      110.82123       54.17185160        0.51050817
      110.92093       54.17387324        0.59543043
      111.02062       54.54829367        0.55202440
      111.12031       54.50706288        0.55593197
      111.22001       55.61156652        0.55112236
      111.31970       56.31095882        0.60194235
      111.41939       57.68456658        0.63057196
      111.51909       57.90796553        0.57329616
      111.61878       57.32044470        0.53725366
      111.71847       60.44608137        0.51357824
      111.81817       63.15289656        0.57002309
      111.91786       65.61815854        0.61173557
      112.01755       67.91195515        0.60791619
      112.11725       70.99250892        0.62659154
      112.21694       72.18260854        0.62911330
      112.31663       73.98120623        0.70205295
      112.41633       75.04362942        0.69475058
      112.51602       77.75444586        0.65153607
      112.61571       80.74660526        0.63368692
      112.71541       84.99901536        0.61314943
      112.81510       86.56467225        0.69399680
      112.91479       87.50516861        0.71088614
      113.01449       88.92606537        0.70193615
      113.11418       88.61165539        0.69831459
      113.21387       88.27628141        0.69378130
      113.31357       90.63277614        0.78102927
      113.41326       91.82646696        0.74727367
      113.51296       92.32541512        0.70489056
      113.61265       92.44414513        0.68059973
      113.71234       92.51489840        0.65034679
      113.81204       90.58377120        0.73700063
      113.91173       90.29562236        0.71299565
      114.01142       90.08978205        0.70498423
      114.11112       87.75430613        0.69513908
      114.21081       87.24272102        0.69806197
      114.31050       85.74434741        0.78460082
      114.41020       85.88370749        0.72562086
      114.50989       83.61663882        0.67001363
      114.60958       81.41973263        0.63956694
      114.70928       81.55237855        0.61736500
      114.80897       78.03570901        0.68452852
      114.90866       77.54123381        0.64354529
      115.00836       78.14136911        0.64307764
      115.10805       77.93899385        0.64572005
      115.20774       78.67266473        0.65865286
      115.30744       79.90112404        0.76229644
      115.40713       79.66682266        0.68941626
      115.50682       80.71485321        0.65524728
      115.60652       80.62280249        0.63113859
      115.70621       81.15419192        0.60862086
      115.80590       83.80212100        0.72182391
      115.90560       85.73705364        0.66196662
      116.00529       88.34049275        0.67974251
      116.10498       90.16903457        0.69413432
      116.20468       93.37504949        0.72298110
      116.30437       94.23416123        0.86592070
      116.40406       96.75298512        0.76452253
      116.50376      100.96933542        0.73857550
      116.60345      104.36329954        0.72121074
      116.70314      109.36745317        0.71651182
      116.80284      118.19018219        0.88635508
      116.90253      122.15886445        0.81114264
      117.00222      128.02540985        0.82464161
      117.10192      132.39420558        0.86169773
      117.20161      138.69978222        0.89366587
      117.30131      138.95701431        1.07041725
      117.40100      146.48924131        0.92514048
      117.50069      150.45710463        0.89107538
      117.60039      157.18809818        0.87261255
      117.70008      165.12809644        0.86760609
      117.79977      167.67962830        1.07179948
      117.89947      172.47569151        0.94573414
      117.99916      173.59745279        0.96029849
      118.09885      173.33063446        0.97750798
      118.19855      174.45418209        1.02733482
      118.29824      179.52150208        1.14343153
      118.39793      180.82749695        1.04214249
      118.49763      183.31697547        0.99055617
      118.59732      184.36184096        0.95924948
      118.69701      185.83207849        1.00351127
      118.79671      184.22382041        1.07857298
      118.89640      181.68323650        0.99823305
      118.99609      177.98519665        0.98635823
      119.09579      177.34958221        0.99596649
      119.19548      175.12187969        1.08099713
      119.29517      173.63447081        1.11801780
      119.39487      173.49365952        1.02731395
      119.49456      167.53796336        0.95040024
      119.59425      162.65399615        0.90869482
      119.69395      156.46646314        0.93929898
      119.79364      152.02653515        0.93501728
      119.89333      145.92226321        0.88566599
      119.99303      142.34061057        0.85353295
      120.09272      138.30366098        0.85993263
      120.19241      135.63575872        0.95678266
      120.29211      132.99336824        0.93733894
      120.39180      130.94759756        0.88705093
      120.49149      126.93203652        0.81170287
      120.59119      123.49687257        0.77666119
      120.69088      120.42532515        0.82518754
      120.79057      119.43007372        0.80399363
      120.89027      118.66679147        0.78670610
      120.98996      118.12020928        0.77878791
      121.08966      118.33279388        0.78535200
      121.18935      117.55758143        0.89714528
      121.28904      118.95998156        0.87981188
      121.38874      116.51382042        0.82304842
      121.48843      116.37950926        0.77691036
      121.58812      115.85287147        0.73923210
      121.68782      117.28152939        0.82417755
      121.78751      117.39437940        0.78575452
      121.88720      118.49267422        0.77947368
      121.98690      116.08360472        0.77697223
      122.08659      116.66436022        0.79459017
      122.18628      113.67938961        0.90944185
      122.28598      113.28234814        0.85367716
      122.38567      113.33952557        0.81781012
      122.48536      112.10156729        0.76919560
      122.58506      111.97811821        0.72809277
      122.68475      110.72798266        0.82026767
      122.78444      110.52167832        0.77162548
      122.88414      108.58244690        0.75808352
      122.98383      106.60253337        0.76627265
      123.08352      103.25154690        0.74725753
      123.18322      100.76897266        0.86063295
      123.28291      101.76541304        0.78617540
      123.38260      101.56681331        0.75817961
      123.48230       99.90324713        0.72452822
      123.58199       98.72961396        0.67307271
      123.68168       95.83312143        0.75632120
      123.78138       94.62872814        0.67791589
      123.88107       91.40830834        0.65051693
      123.98076       89.23764265        0.65439322
      124.08046       89.13903673        0.64712965
      124.18015       88.18774761        0.72842352
      124.27984       87.02507927        0.64817431
      124.37954       84.69943322        0.60316934
      124.47923       82.97802857        0.58265930
      124.57893       77.81808999        0.60062044
