        5.04651       57.95090832        1.17106412
        5.14621       56.01374307        1.10921967
        5.24590       54.77481054        1.08092238
        5.34559       53.12377950        0.97604898
        5.44529       52.83267374        1.05888581
        5.54498       51.50034859        0.87920561
        5.64467       52.30311504        0.87840947
        5.74437       51.41926441        0.78608063
        5.84406       51.00495837        0.79224322
        5.94375       50.49854833        0.78717469
        6.04345       49.25714040        0.75526488
        6.14314       49.50082754        0.69326757
        6.24283       50.15297723        0.72093631
        6.34253       48.84754661        0.67846278
        6.44222       50.03851837        0.72320285
        6.54191       48.67555961        0.67556854
        6.64161       48.47957280        0.63868059
        6.74130       50.57470797        0.65520862
        6.84099       48.75842568        0.63847670
        6.94069       49.27140493        0.65154919
        7.04038       48.10589422        0.59415081
        7.14007       48.08596409        0.59279407
        7.23977       48.57727907        0.58544767
        7.33946       47.68040068        0.58880473
        7.43915       48.12157398        0.58384857
        7.53885       48.38301611        0.57465695
        7.63854       47.53460390        0.54432710
        7.73823       48.29031173        0.56975708
        7.83793       48.19422196        0.55080255
        7.93762       47.71982321        0.57168441
        8.03732       48.66367267        0.51783199
        8.13701       48.35574704        0.51383353
        8.23670       48.04734552        0.51939185
        8.33640       47.29486397        0.51538280
        8.43609       47.83496475        0.54193005
        8.53578       47.41733298        0.50253140
        8.63548       47.42881544        0.49681658
        8.73517       47.44720597        0.48744356
        8.83486       47.70668866        0.48998700
        8.93456       47.83489090        0.48813582
        9.03425       47.22113687        0.47074192
        9.13394       47.88033061        0.47496305
        9.23364       46.52850287        0.47493496
        9.33333       46.52997812        0.48461250
        9.43302       47.62505638        0.49055772
        9.53272       46.59276252        0.46873484
        9.63241       46.54246771        0.48171934
        9.73210       47.21562850        0.48427456
        9.83180       48.14650126        0.50964303
        9.93149       47.25218279        0.50119571
       10.03118       48.06698660        0.48645496
       10.13088       47.63095346        0.47260428
       10.23057       47.67939702        0.49516872
       10.33026       48.33242203        0.51539225
       10.42996       47.82205198        0.50559483
       10.52965       48.07735456        0.49097187
       10.62934       47.91729025        0.49131786
       10.72904       47.96470803        0.49883487
       10.82873       49.31733042        0.50338891
       10.92842       49.10111650        0.51068430
       11.02812       50.43843279        0.49323010
       11.12781       50.78963388        0.51272917
       11.22750       50.15095800        0.51451419
       11.32720       50.97246591        0.53273911
       11.42689       51.07654967        0.51478991
       11.52658       52.68322613        0.51673695
       11.62628       53.05275103        0.52420601
       11.72597       56.92906806        0.55492515
       11.82567       58.43244995        0.57798878
       11.92536       61.53044577        0.55534385
       12.02505       66.32780074        0.57975149
       12.12475       71.23233984        0.60076502
       12.22444       78.76080653        0.67071506
       12.32413       89.71341678        0.72807740
       12.42383       99.22049130        0.72787839
       12.52352      115.56158966        0.78273465
       12.62321      133.24356055        0.86672806
       12.72291      156.59432265        0.91761648
       12.82260      180.54081685        1.07488544
       12.92229      201.02198930        1.03317567
       13.02199      228.66617489        1.09757350
       13.12168      256.20979549        1.18652883
       13.22137      288.81496939        1.30654063
       13.32107      310.32918103        1.40174454
       13.42076      337.87287764        1.41309489
       13.52045      358.89750192        1.47799127
       13.62015      362.77523231        1.44075739
       13.71984      344.95462144        1.46057229
       13.81953      317.97273170        1.42099579
       13.91923      282.25420243        1.25172469
       14.01892      222.89498216        1.07421043
       14.11861      172.02534324        0.97770924
       14.21831      136.00201939        0.86580293
       14.31800      108.11070383        0.80938840
       14.41769       82.82197183        0.67964891
       14.51739       70.37593459        0.61010588
       14.61708       60.50733774        0.56627190
       14.71677       54.91300976        0.54778240
       14.81647       51.35737512        0.55463478
       14.91616       50.12280816        0.50378450
       15.01585       49.52384213        0.50974320
       15.11555       50.32763917        0.51989215
       15.21524       48.35342214        0.52503408
       15.31493       48.57977768        0.53897351
       15.41463       48.17652260        0.51964191
       15.51432       47.28434260        0.49877934
       15.61402       47.86012315        0.51456531
       15.71371       46.93155068        0.50596747
       15.81340       46.86448587        0.52597201
       15.91310       47.46409513        0.51437666
       16.01279       46.47098202        0.48724676
       16.11248       47.78622484        0.50747803
       16.21218       48.12283967        0.52340565
       16.31187       47.67220756        0.52218218
       16.41156       47.93096577        0.51387083
       16.51126       48.65127464        0.52653731
       16.61095       49.59274750        0.51267490
       16.71064       50.29451641        0.53267738
       16.81034       50.74382885        0.53671249
       16.91003       51.93182953        0.52740887
       17.00972       54.42670392        0.51855295
       17.10942       57.56701080        0.56397317
       17.20911       60.58273353        0.58396354
       17.30880       64.82066958        0.60972308
       17.40850       68.18784315        0.62556131
       17.50819       71.40125272        0.62190367
       17.60788       73.82613087        0.65227682
       17.70758       74.35821878        0.65738005
       17.80727       75.43466086        0.67042021
       17.90696       71.17031837        0.60840877
       18.00666       67.46177006        0.60236514
       18.10635       63.94834052        0.57010614
       18.20604       60.03623967        0.60558568
       18.30574       57.15075258        0.56284589
       18.40543       55.53216445        0.54094156
       18.50512       54.32003318        0.55177524
       18.60482       52.41921079        0.53335843
       18.70451       52.46166513        0.56386444
       18.80420       51.83790987        0.52649545
       18.90390       50.50771111        0.51402999
       19.00359       50.04623188        0.49826120
       19.10328       49.24045008        0.52282046
       19.20298       47.57242721        0.52972582
       19.30267       48.17982762        0.51199768
       19.40237       46.90381466        0.49934413
       19.50206       45.78749860        0.50567220
       19.60175       46.53858238        0.50415208
       19.70145       46.32440816        0.52741280
       19.80114       45.61408789        0.49630823
       19.90083       46.29368221        0.48315193
       20.00053       46.05675110        0.49044466
       20.10022       46.90161240        0.49867160
       20.19991       47.32507992        0.53557622
       20.29961       49.28433401        0.51803540
       20.39930       48.78441176        0.53092501
       20.49899       50.65711951        0.53179318
       20.59869       51.62145592        0.54673777
       20.69838       52.04810686        0.56927930
       20.79807       52.93192089        0.54765309
       20.89777       53.77298157        0.53957787
       20.99746       55.36007561        0.55307834
       21.09715       56.80407005        0.59026428
       21.19685       57.09909396        0.58874067
       21.29654       58.57571424        0.58184051
       21.39623       57.70178788        0.57742672
       21.49593       55.70763068        0.55905889
       21.59562       53.27877184        0.55966554
       21.69531       52.19665053        0.57607611
       21.79501       49.01063251        0.51037591
       21.89470       47.02484141        0.48851171
       21.99439       46.83771843        0.50819281
       22.09409       45.32737801        0.50103931
       22.19378       46.27662873        0.53773059
       22.29347       45.92096221        0.49885327
       22.39317       45.98602085        0.51214462
       22.49286       46.47819909        0.51451047
       22.59255       46.58249292        0.52115335
       22.69225       47.80665732        0.55647983
       22.79194       49.85014735        0.51052134
       22.89163       51.74682111        0.51014068
       22.99133       57.08173588        0.55115988
       23.09102       60.29739272        0.58863245
       23.19072       63.32125269        0.60495046
       23.29041       66.11566640        0.61075281
       23.39010       67.30149669        0.62278847
       23.48980       66.48746392        0.62117072
       23.58949       64.06809937        0.61768330
       23.68918       60.64933125        0.63159267
       23.78888       56.20843070        0.54145959
       23.88857       51.82898109        0.52634235
       23.98826       48.93254472        0.52258487
       24.08796       46.39018147        0.49869377
       24.18765       46.14012791        0.53288876
       24.28734       44.33182893        0.49716451
       24.38704       45.69476560        0.51330677
       24.48673       43.75758509        0.50034353
       24.58642       44.06951293        0.51876619
       24.68612       44.23004845        0.51903802
       24.78581       44.81667582        0.48167666
       24.88550       44.42685274        0.47934923
       24.98520       45.63787224        0.50391583
       25.08489       45.71516285        0.51441953
       25.18458       45.63877986        0.52477961
       25.28428       47.15531031        0.51426385
       25.38397       47.98514182        0.51632352
       25.48366       49.19334530        0.52602105
       25.58336       54.07126142        0.57529659
       25.68305       60.90084503        0.59950820
       25.78274       69.53727174        0.60547582
       25.88244       83.90040483        0.68344904
       25.98213      104.92434142        0.77310937
       26.08182      129.11361031        0.88340393
       26.18152      154.38078253        0.99314334
       26.28121      177.85994530        1.01184822
       26.38090      193.63533009        1.06715377
       26.48060      199.01766023        1.11267457
       26.58029      187.62617895        1.12514882
       26.67998      170.44947957        1.01036302
       26.77968      144.08291275        0.91432055
       26.87937      114.49290162        0.79977456
       26.97907       92.62797844        0.71097703
       27.07876       78.99981604        0.70547725
       27.17845       75.08367241        0.65685690
       27.27815       78.77906384        0.65747419
       27.37784       81.84242013        0.69659478
       27.47753       85.17100681        0.70051311
       27.57723       85.31569264        0.73446462
       27.67692       83.46681549        0.70887171
       27.77661       78.91799628        0.65741377
       27.87631       69.20912142        0.60445696
       27.97600       62.11919263        0.58489891
       28.07569       57.17972702        0.59344866
       28.17539       52.19852928        0.54236388
       28.27508       51.27314387        0.53769291
       28.37477       49.81828781        0.54248858
       28.47447       48.99760135        0.53372381
       28.57416       50.47773380        0.58582074
       28.67385       51.09159272        0.52440809
       28.77355       53.70528689        0.52818862
       28.87324       55.85456053        0.55320302
       28.97293       56.82093064        0.55936205
       29.07263       58.51599003        0.61894166
       29.17232       57.73900363        0.56100053
       29.27201       56.69679500        0.56608536
       29.37171       54.12525945        0.56872807
       29.47140       50.96711916        0.54522208
       29.57109       49.71252701        0.57087243
       29.67079       48.65978234        0.51409170
       29.77048       47.75804441        0.51040789
       29.87017       46.78746532        0.49519561
       29.96987       46.15502936        0.51564873
       30.06956       47.06224954        0.53727335
       30.16925       46.92806182        0.50514237
       30.26895       47.68873848        0.51123275
       30.36864       47.99349025        0.52127224
       30.46833       49.97333549        0.53748921
       30.56803       53.19798482        0.58612450
       30.66772       55.44200384        0.55702906
       30.76742       59.47752338        0.56578471
       30.86711       61.76388683        0.58827188
       30.96680       63.74662840        0.60129601
       31.06650       61.73948433        0.62027039
       31.16619       61.59319024        0.58249916
       31.26588       59.98293308        0.57122593
       31.36558       57.87292449        0.56823204
       31.46527       57.16861677        0.58757259
       31.56496       59.54737114        0.60955146
       31.66466       64.05677161        0.59169020
       31.76435       70.21430945        0.61947228
       31.86404       79.99023409        0.65356082
       31.96374       85.51568141        0.69205103
       32.06343       86.67794847        0.72114587
       32.16312       88.78129818        0.68614832
       32.26282       83.48590088        0.68103841
       32.36251       77.30839080        0.68089497
       32.46220       71.50507192        0.66595558
       32.56190       69.55788234        0.66827704
       32.66159       66.65187860        0.62093018
       32.76128       66.09041917        0.60438370
       32.86098       62.78407671        0.59757879
       32.96067       61.30056548        0.59772189
       33.06036       60.19019771        0.60297585
       33.16006       58.46199794        0.55947850
       33.25975       55.87066527        0.56445381
       33.35944       55.07324484        0.56337053
       33.45914       57.14767493        0.59592514
       33.55883       57.38734155        0.59859518
       33.65852       61.11528769        0.57639331
       33.75822       64.46375081        0.59126561
       33.85791       72.99564412        0.63262401
       33.95760       82.74465826        0.69452964
       34.05730       90.25002553        0.71912340
       34.15699      105.46848374        0.76688072
       34.25668      120.88185596        0.82006043
       34.35638      149.11088907        0.93834088
       34.45607      187.39526333        1.11412812
       34.55577      229.81377572        1.18270031
       34.65546      294.25794742        1.29485293
       34.75515      369.67374806        1.49388681
       34.85485      426.16508994        1.60328393
       34.95454      448.64057148        1.70150921
       35.05423      434.87948563        1.72946827
       35.15393      387.24955099        1.52316492
       35.25362      311.85805957        1.37436445
       35.35331      244.16193787        1.23650605
       35.45301      181.83242180        1.10376490
       35.55270      138.72396526        0.93295902
       35.65239      107.57064285        0.78981796
       35.75209       87.89869683        0.70658973
       35.85178       79.13829633        0.66863406
       35.95147       72.07765501        0.65237977
       36.05117       68.60532743        0.62302309
       36.15086       66.32244405        0.58879089
       36.25055       62.91057680        0.59877566
       36.35025       60.65104895        0.59921205
       36.44994       58.49993003        0.60003527
       36.54963       57.09800543        0.56892941
       36.64933       55.17115985        0.55071964
       36.74902       54.73121035        0.55420958
       36.84871       54.26510782        0.54781946
       36.94841       52.26265030        0.58119871
       37.04810       50.45496430        0.50337220
       37.14779       49.90254062        0.51082537
       37.24749       50.32920649        0.52731394
       37.34718       48.69389579        0.53175655
       37.44687       48.16734972        0.56806307
       37.54657       48.25414544        0.51907922
       37.64626       48.13058189        0.51641535
       37.74595       47.91505496        0.50718254
       37.84565       47.43007160        0.53387718
       37.94534       47.29012702        0.54306938
       38.04503       46.50074716        0.48665956
       38.14473       47.37786866        0.49611745
       38.24442       47.70192526        0.50693794
       38.34412       48.19414645        0.53276950
       38.44381       48.11536979        0.57560049
       38.54350       49.10352265        0.51842790
       38.64320       49.48904110        0.51891625
       38.74289       51.31389762        0.53547721
       38.84258       54.24949702        0.55219343
       38.94228       55.88814581        0.58802677
       39.04197       58.90246430        0.54462019
       39.14166       63.98113071        0.59097210
       39.24136       69.07430859        0.61291591
       39.34105       70.69784342        0.64187148
       39.44074       72.17953821        0.70760710
       39.54044       71.73979718        0.63071717
       39.64013       69.15586201        0.61709185
       39.73982       67.73823879        0.61306528
       39.83952       63.61956907        0.58970814
       39.93921       60.90465732        0.61151069
       40.03890       58.34386590        0.54762084
       40.13860       57.67713231        0.54371777
       40.23829       55.77995276        0.55343576
       40.33798       57.03985585        0.57722288
       40.43768       56.45678669        0.60077702
       40.53737       56.25578975        0.55658558
       40.63706       58.32451652        0.57883326
       40.73676       58.92945122        0.58096397
       40.83645       60.93581006        0.59590932
       40.93614       62.91426945        0.61585947
       41.03584       65.67797483        0.59243303
       41.13553       77.05407342        0.64362345
       41.23522       92.92056903        0.72579227
       41.33492      112.87779256        0.83998729
       41.43461      137.23687625        0.95944385
       41.53430      160.17027704        0.97397095
       41.63400      189.36150983        1.08686252
       41.73369      205.05176539        1.10877083
       41.83338      214.09950991        1.16479235
       41.93308      215.34678372        1.15797548
       42.03277      220.96126645        1.07298983
       42.13247      245.32164786        1.19249882
       42.23216      294.96843365        1.31916932
       42.33185      354.75768265        1.56532628
       42.43155      420.80895269        1.69407891
       42.53124      486.77583089        1.77879811
       42.63093      532.13270898        1.87352283
       42.73063      550.99374206        1.91932977
       42.83032      534.34676947        1.91956215
       42.93001      496.95246028        1.77354747
       43.02971      424.10422646        1.53371872
       43.12940      336.74572869        1.37868135
       43.22909      255.37130803        1.24812930
       43.32879      193.69162161        1.13532899
       43.42848      148.67180844        0.96658655
       43.52817      108.99732822        0.78714527
       43.62787       85.93995454        0.69418565
       43.72756       73.32846460        0.65512937
       43.82725       65.55080935        0.64598564
       43.92695       61.88796878        0.56885969
       44.02664       58.81614226        0.55163386
       44.12633       56.43778493        0.56028363
       44.22603       55.95420216        0.58062762
       44.32572       53.83070659        0.60001426
       44.42541       54.84757067        0.57835223
       44.52511       54.16378206        0.55921065
       44.62480       56.70865412        0.58054144
       44.72449       58.12332672        0.56970258
       44.82419       61.15150483        0.65604129
       44.92388       65.55914158        0.56692754
       45.02357       74.80104716        0.61144620
       45.12327       87.56164958        0.68277923
       45.22296      105.11321899        0.76987917
       45.32265      127.96577428        0.94296197
       45.42235      148.16078505        0.92658973
       45.52204      176.72672793        1.00604554
       45.62174      205.88957971        1.11035247
       45.72143      227.84260263        1.17170750
       45.82112      238.77249665        1.31512004
       45.92082      241.34500514        1.12289048
       46.02051      240.88860259        1.14574281
       46.12020      232.93501182        1.12904708
       46.21990      218.25077678        1.14597285
       46.31959      197.74532692        1.17435294
       46.41928      176.56809406        1.02175922
       46.51898      146.47890203        0.93155852
       46.61867      118.26385237        0.82922745
       46.71836       94.81381305        0.75876958
       46.81806       81.84771582        0.72953583
       46.91775       68.31823250        0.57970401
       47.01744       63.10348294        0.56994274
       47.11714       63.31520615        0.58395748
       47.21683       68.37090828        0.62520933
       47.31652       75.96444095        0.71983090
       47.41622       86.73438361        0.72608279
       47.51591      102.11503253        0.79117554
       47.61560      115.80471047        0.83718466
       47.71530      134.12086536        0.91321279
       47.81499      148.91044192        0.98862184
       47.91468      162.38733271        0.90492423
       48.01438      174.98827048        0.94158650
       48.11407      181.29085489        0.99520319
       48.21376      178.09459103        1.02932103
       48.31346      171.84297606        1.04612684
       48.41315      159.67636986        0.93823748
       48.51284      142.90518416        0.91482473
       48.61254      121.56245231        0.83757436
       48.71223      103.92412984        0.78636611
       48.81192       88.67532024        0.72295469
       48.91162       74.19810084        0.59147017
       49.01131       62.31224981        0.55995221
       49.11100       57.20941136        0.55540802
       49.21070       52.85877971        0.56009250
       49.31039       52.75920279        0.57588928
       49.41009       50.14935028        0.53017070
       49.50978       50.09657194        0.54085168
       49.60947       49.55818474        0.54182478
       49.70917       49.42493735        0.56114672
       49.80886       48.59504782        0.54145228
       49.90855       49.41740442        0.49745512
       50.00825       50.41131671        0.51313349
       50.10794       49.87681439        0.52197351
       50.20763       50.83302627        0.55063556
       50.30733       52.47049526        0.58616683
       50.40702       52.84763696        0.55169556
       50.50671       54.84536948        0.56387203
       50.60641       55.62864285        0.56876578
       50.70610       56.63638627        0.59061921
       50.80579       56.82843565        0.58383196
       50.90549       56.55006814        0.52505786
       51.00518       56.44074894        0.52919071
       51.10487       55.77309091        0.54371209
       51.20457       55.89859277        0.57949376
       51.30426       56.73323953        0.58085116
       51.40395       56.49424686        0.55564848
       51.50365       58.94644876        0.57430576
       51.60334       59.60288743        0.58896659
       51.70303       61.00946603        0.63294043
       51.80273       60.94599086        0.58026892
       51.90242       61.07959469        0.54275738
       52.00211       62.17900023        0.55031452
       52.10181       62.63365423        0.56984871
       52.20150       62.92154923        0.62903082
       52.30119       62.86708687        0.60567676
       52.40089       62.47915824        0.59431057
       52.50058       60.98748973        0.59811172
       52.60027       60.59999065        0.60431141
       52.69997       60.92456196        0.66407958
       52.79966       60.95421564        0.55845108
       52.89935       64.59591430        0.55505054
       52.99905       74.18492322        0.60551436
       53.09874       85.26475825        0.67129416
       53.19844       96.57036167        0.81956638
       53.29813      109.86722143        0.77848168
       53.39782      123.61401533        0.85604828
       53.49752      134.35327861        0.89797499
       53.59721      145.21674718        0.93442678
       53.69690      148.53619231        1.03743383
       53.79660      155.64788021        0.89061548
       53.89629      153.71702564        0.87524649
       53.99598      147.57041380        0.87767932
       54.09568      135.53147409        0.87668268
       54.19537      123.57516453        0.91125849
       54.29506      113.35487644        0.80052131
       54.39476      102.97062810        0.76762616
       54.49445       95.45465001        0.73872687
       54.59414       91.15816328        0.73240795
       54.69384       87.91979919        0.76692789
       54.79353       85.56689902        0.64855929
       54.89322       83.28808667        0.63732442
       54.99292       78.52258190        0.63643790
       55.09261       75.44208481        0.64842103
       55.19230       69.74644970        0.66889373
       55.29200       65.85059186        0.60454217
       55.39169       62.51799220        0.60745865
       55.49138       59.40827316        0.58965527
       55.59108       57.43470069        0.59817397
       55.69077       56.31030239        0.60773233
       55.79046       55.60695539        0.52793582
       55.89016       56.43424727        0.53065385
       55.98985       56.43559571        0.53406192
       56.08954       60.13843936        0.56983472
       56.18924       64.29239096        0.63629966
       56.28893       71.65702725        0.61555983
       56.38862       82.83624034        0.68585278
       56.48832       93.74673366        0.74347323
       56.58801      105.55823023        0.81327074
       56.68770      110.10360863        0.85784755
       56.78740      115.79935096        0.75361995
       56.88709      115.04837056        0.75857525
       56.98679      107.89851339        0.73443387
       57.08648       96.55483289        0.73513735
       57.18617       86.99578767        0.72142611
       57.28587       76.87039308        0.63257534
       57.38556       68.32248677        0.63396374
       57.48525       61.19276578        0.61078628
       57.58495       57.02884518        0.60274071
       57.68464       54.72216957        0.59534805
       57.78433       52.89169597        0.51186738
       57.88403       52.43931759        0.51557523
       57.98372       52.54948126        0.52434501
       58.08341       51.24528007        0.55973256
       58.18311       52.08546059        0.57732846
       58.28280       52.79109877        0.54751737
       58.38249       52.12246385        0.56840365
       58.48219       52.68519087        0.58386057
       58.58188       52.10341128        0.58691874
       58.68157       53.05809031        0.58047158
       58.78127       53.51527180        0.50996325
       58.88096       53.16768542        0.50077433
       58.98065       54.67566032        0.52730044
       59.08035       55.65460509        0.56776685
       59.18004       59.03644563        0.59353232
       59.27973       59.38903432        0.56169006
       59.37943       61.96519231        0.59291332
       59.47912       66.22035317        0.63851442
       59.57881       71.09502449        0.69364568
       59.67851       77.42165054        0.67556162
       59.77820       84.83447136        0.65087191
       59.87789       92.21389728        0.67697852
       59.97759       98.96277872        0.73441603
       60.07728      103.85810839        0.81537795
       60.17697      107.00831504        0.78884443
       60.27667      108.79937700        0.77356375
       60.37636      107.33733717        0.78305797
       60.47605      104.75625232        0.80668995
       60.57575       98.79984995        0.85774662
       60.67544       94.62761977        0.72071275
       60.77514       85.35410470        0.64974170
       60.87483       77.48158398        0.60626670
       60.97452       70.40487263        0.60812259
       61.07422       68.43095739        0.67329603
       61.17391       66.49266423        0.57472467
       61.27360       65.68371566        0.59141952
       61.37330       67.14591384        0.62029939
       61.47299       67.81995355        0.65087814
       61.57268       70.63077723        0.75571263
       61.67238       69.83965576        0.61237991
       61.77207       71.20738331        0.60236663
       61.87176       70.33407112        0.59190229
       61.97146       70.34087132        0.61455154
       62.07115       69.11301158        0.68977344
       62.17084       67.71631565        0.59804544
       62.27054       65.47853211        0.61294667
       62.37023       65.67660012        0.63835007
       62.46992       66.18952407        0.66286061
       62.56962       66.85637757        0.74831853
       62.66931       67.38347583        0.60526585
       62.76900       73.98208126        0.61884539
       62.86870       80.23117025        0.63104259
       62.96839       89.63040830        0.68933272
       63.06808       96.01767238        0.79481104
       63.16778      103.66175559        0.73399521
       63.26747      112.84835210        0.79368830
       63.36716      117.26082975        0.84019586
       63.46686      123.29563821        0.88824302
       63.56655      127.23090925        0.95917309
       63.66624      138.36771377        0.85171698
       63.76594      151.67686319        0.86804977
       63.86563      162.36935300        0.89684596
       63.96532      172.10379703        0.96766929
       64.06502      176.14807367        1.04944915
       64.16471      172.86687506        0.96112792
       64.26440      161.64727945        0.96582733
       64.36410      149.48261369        0.94575891
       64.46379      131.98230160        0.93723229
       64.56349      118.05493400        0.90019550
       64.66318      101.75286236        0.72958573
       64.76287       83.64576863        0.65141997
       64.86257       71.40843268        0.59977479
       64.96226       63.21998047        0.59033033
       65.06195       58.85209528        0.61544091
       65.16165       55.50978988        0.53887827
       65.26134       53.04260285        0.53887064
       65.36103       53.08429992        0.56252550
       65.46073       54.01375576        0.58616649
       65.56042       55.34040403        0.61983022
       65.66011       56.02175878        0.54384691
       65.75981       57.14070572        0.54386163
       65.85950       59.92356252        0.55365747
       65.95919       60.49409109        0.58236782
       66.05889       64.86775859        0.62422958
       66.15858       70.74715888        0.62051840
       66.25827       78.35134250        0.67617513
       66.35797       86.84806355        0.74260444
       66.45766       99.86689684        0.84787768
       66.55735      111.73495403        0.89826569
       66.65705      125.26952490        0.84544563
       66.75674      139.52120457        0.87136622
       66.85643      154.20199320        0.90771035
       66.95613      164.57287892        0.97657347
       67.05582      170.10728971        1.00116660
       67.15551      169.05598404        0.94960981
       67.25521      161.53289414        0.97316197
       67.35490      150.50142855        0.98722810
       67.45459      136.41314740        0.98911396
       67.55429      121.54497516        0.89252137
       67.65398      102.40951364        0.73215720
       67.75367       87.16968576        0.66835260
       67.85337       78.15896516        0.63973788
       67.95306       76.39789100        0.67615092
       68.05275       76.70009152        0.64153969
       68.15245       80.64178358        0.65256629
       68.25214       88.85792580        0.72801730
       68.35184       96.30727078        0.79081749
       68.45153      103.27267763        0.90249969
       68.55122      108.32729000        0.79688022
       68.65092      117.97289668        0.77630400
       68.75061      125.58634514        0.81020094
       68.85030      129.08358368        0.83768381
       68.95000      128.27924994        0.94664840
       69.04969      124.35098880        0.78664101
       69.14938      112.97156205        0.76959486
       69.24908      102.05849987        0.77983377
       69.34877       91.35374815        0.76179732
       69.44846       82.92532735        0.84075565
       69.54816       75.06219740        0.62288767
       69.64785       67.35950560        0.58103957
       69.74754       59.59519710        0.55131633
       69.84724       54.99319557        0.54299691
       69.94693       52.79410540        0.60020773
       70.04662       49.76352857        0.47895214
       70.14632       48.78198638        0.49302531
       70.24601       48.30947394        0.52529237
       70.34570       48.34697827        0.55607955
       70.44540       48.57815534        0.65678407
       70.54509       48.95378304        0.51610462
       70.64478       48.71433163        0.51408727
       70.74448       50.67500465        0.53282281
       70.84417       50.28718176        0.55074466
       70.94386       50.36888076        0.60506270
       71.04356       51.17803666        0.50476425
       71.14325       51.95751082        0.52859025
       71.24294       53.43763942        0.56417305
       71.34264       54.36670840        0.60349247
       71.44233       55.14467279        0.67832503
       71.54202       54.83723385        0.55067053
       71.64172       54.77731786        0.53536481
       71.74141       52.34262208        0.51361850
       71.84110       52.34237895        0.53167472
       71.94080       52.96678491        0.58286805
       72.04049       52.25717053        0.48996408
       72.14019       52.28459906        0.51063212
       72.23988       51.81805986        0.53184800
       72.33957       52.67922029        0.59908313
       72.43927       52.72063399        0.65973449
       72.53896       53.08314979        0.53081340
       72.63865       52.96516798        0.51825850
       72.73835       54.71215258        0.51530754
       72.83804       55.75929807        0.54942800
       72.93773       58.58843441        0.59852882
       73.03743       61.20647685        0.53125030
       73.13712       62.65977978        0.56699808
       73.23681       64.86998006        0.60632877
       73.33651       64.65848707        0.66606256
       73.43620       63.53294040        0.71499445
       73.53589       64.50263464        0.58126073
       73.63559       66.01266175        0.57894223
       73.73528       65.03882848        0.57194889
       73.83497       64.67339028        0.60461597
       73.93467       65.57485503        0.64118390
       74.03436       65.53189585        0.56725569
       74.13405       63.48529068        0.58185948
       74.23375       61.98399736        0.59872564
       74.33344       62.35336840        0.66111790
       74.43313       62.20957593        0.68520805
       74.53283       64.34528830        0.59230699
       74.63252       66.58964904        0.59841250
       74.73221       69.51615587        0.60873511
       74.83191       73.59685237        0.66488633
       74.93160       76.75225163        0.68700251
       75.03129       78.99902568        0.61986288
       75.13099       84.02588238        0.66271210
       75.23068       90.47149133        0.71803479
       75.33037       98.45630759        0.82443801
       75.43007      103.82711552        0.85957426
       75.52976      110.85675906        0.77233242
       75.62945      122.56618577        0.81292217
       75.72915      131.50606161        0.83990361
       75.82884      137.26710722        0.92472418
       75.92854      138.06437988        0.87067132
       76.02823      145.44507829        0.83911075
       76.12792      148.84838904        0.88771879
       76.22762      151.93845141        0.94674057
       76.32731      151.24585059        1.06666723
       76.42700      149.70035988        1.00132736
       76.52670      147.58998586        0.91692527
       76.62639      138.11769914        0.87444009
       76.72608      130.60046262        0.83518736
       76.82578      122.58992923        0.93115543
       76.92547      121.23027812        0.74153190
       77.02516      120.21601318        0.76521455
       77.12486      121.64668788        0.80880311
       77.22455      125.99088991        0.87706213
       77.32424      128.87860069        1.09027758
       77.42394      133.18877069        0.88561716
       77.52363      134.83982289        0.86130810
       77.62332      138.78927744        0.87038623
       77.72302      146.07246920        0.89601853
       77.82271      147.68974415        1.05687087
       77.92240      149.29423086        0.81388375
       78.02210      148.72879885        0.87646450
       78.12179      147.70640278        0.93273862
       78.22148      139.81109624        0.95836794
       78.32118      134.97102699        1.09177173
       78.42087      128.00394465        0.83582553
       78.52056      121.91652429        0.84153814
       78.62026      114.02929392        0.80644131
       78.71995      105.29698402        0.77643756
       78.81964       98.36617870        0.83729443
       78.91934       88.72769173        0.61520078
       79.01903       78.84164635        0.63474789
       79.11872       72.56034869        0.63306898
       79.21842       68.41733643        0.65532376
       79.31811       66.51900940        0.72762627
       79.41780       64.82513514        0.58252195
       79.51750       64.42291324        0.59002600
       79.61719       63.43103119        0.58708855
       79.71689       63.83448346        0.61151482
       79.81658       65.62078393        0.65744363
       79.91627       65.22251567        0.55555084
       80.01597       64.05260384        0.56576662
       80.11566       62.86787941        0.58581649
       80.21535       63.99876275        0.63194057
       80.31505       65.87765568        0.76242023
       80.41474       65.31070100        0.58327201
       80.51443       68.35828400        0.59442365
       80.61413       72.97685894        0.63504587
       80.71382       76.70089975        0.67390762
       80.81351       82.00020101        0.78367346
       80.91321       88.45952916        0.60086139
       81.01290      105.38783786        0.70995250
       81.11259      121.86269678        0.82615165
       81.21229      138.71341086        0.95587725
       81.31198      152.10989909        1.11885068
       81.41167      172.06553229        0.93455008
       81.51137      195.90572653        1.02956291
       81.61106      211.54462157        1.11968473
       81.71075      230.39652433        1.21282418
       81.81045      236.35824830        1.30241350
       81.91014      260.30256980        1.05475450
       82.00983      276.62929675        1.16495585
       82.10953      288.01721603        1.33196825
       82.20922      296.33791693        1.50440347
       82.30891      297.22493038        1.57993772
       82.40861      300.56413442        1.29265286
       82.50830      296.76516367        1.28035991
       82.60799      296.07651302        1.37746854
       82.70769      292.89348009        1.49022205
       82.80738      293.72331512        1.42606777
       82.90707      284.23888667        1.13750041
       83.00677      274.59153914        1.18958844
       83.10646      264.87100407        1.37281300
       83.20615      252.74175793        1.49001917
       83.30585      238.57326907        1.36855626
       83.40554      219.77760337        1.08903879
       83.50524      202.89467848        1.01851964
       83.60493      183.27108864        1.06330244
       83.70462      167.03373761        1.14186544
       83.80432      151.38475716        0.94775033
       83.90401      129.47873456        0.73277791
       84.00370      108.07670667        0.69593407
       84.10340       92.13414393        0.76589937
       84.20309       85.02473062        0.89223701
       84.30278       77.66405265        0.69269143
       84.40248       72.43541913        0.58991219
       84.50217       68.15120312        0.56095416
       84.60186       66.25667400        0.62522176
       84.70156       64.77934411        0.80877958
       84.80125       65.43611035        0.56599817
       84.90094       64.39106582        0.50427897
       85.00064       64.58674931        0.52036430
       85.10033       64.84854350        0.61711301
       85.20002       64.92303775        1.05903255
       85.29972       65.33444253        0.56045329
       85.39941       67.21353121        0.57975490
       85.49910       67.88953118        0.56669071
       85.59880       67.18394955        0.63382623
       85.69849       68.34071219        1.14792135
       85.79818       65.09892811        0.52791659
       85.89788       63.61221565        0.50925411
       85.99757       64.35316809        0.52636585
       86.09726       64.61279930        0.60559077
       86.19696       65.16440646        1.16819463
       86.29665       63.20153393        0.54424840
       86.39634       62.30015402        0.54964565
       86.49604       60.61367360        0.53380036
       86.59573       59.08759349        0.56140339
       86.69542       59.37431236        1.17668349
       86.79512       55.44781584        0.47170423
       86.89481       55.43080905        0.46498443
       86.99451       55.02893375        0.48019259
       87.09420       53.41149918        0.52746823
       87.19389       53.13033996        1.24610243
       87.29359       53.64796588        0.50751141
       87.39328       51.52889622        0.50392204
       87.49297       49.04033954        0.47702857
       87.59267       49.74600049        0.48995603
       87.69236       49.14392940        1.45704083
       87.79205       50.16073464        0.45863841
       87.89175       50.06967007        0.45452564
       87.99144       50.86398754        0.47742987
       88.09113       50.07920299        0.50345209
       88.19083       49.64352091        2.65231831
       88.29052       49.45027452        0.50337830
       88.39021       49.12255476        0.50502295
       88.48991       49.82748798        0.48820419
       88.58960       50.04458374        0.47383023
       88.68929       47.64656735        3.58009178
       88.78899       50.27693086        0.45843633
       88.88868       50.39627036        0.44896508
       88.98837       50.69439666        0.46836860
       89.08807       49.55704007        0.47423218
       89.18776       48.38463697        3.81192514
       89.28745       50.30166099        0.48549401
       89.38715       52.52970801        0.50141937
       89.48684       54.54909752        0.50020832
       89.58653       55.72527701        0.49540124
       89.68623       57.75997615        4.09022229
       89.78592       59.69071420        0.49854466
       89.88561       62.50209603        0.50037705
       89.98531       65.38193622        0.52502909
       90.08500       71.32670091        0.56932270
       90.18469       71.46231144        4.75283156
       90.28439       75.05079539        0.59681115
       90.38408       80.40202871        0.62865451
       90.48377       86.17355604        0.63922295
       90.58347       90.86572648        0.64658022
       90.68316       95.76487826        5.17485005
       90.78286       93.30737522        0.62744186
       90.88255       95.06723998        0.61643548
       90.98224       98.63568910        0.65003677
       91.08194      100.92524299        0.67937554
       91.18163       92.78224423        5.19069287
       91.28132       99.50024813        0.69435847
       91.38102       98.00579086        0.70723228
       91.48071       96.16092625        0.68313939
       91.58040       91.06234697        0.64236977
       91.68010       93.08320981        4.91506842
       91.77979       85.94395224        0.59854810
       91.87948       82.44825392        0.57685198
       91.97918       79.58211078        0.58821527
       92.07887       76.89823440        0.60203653
       92.17856       73.71398448        4.47928909
       92.27826       75.64678320        0.61656889
       92.37795       75.51295988        0.63062237
       92.47764       73.98946882        0.59242510
       92.57734       75.70442801        0.58150711
       92.67703       78.18927855        3.83779922
       92.77672       79.23527935        0.57372365
       92.87642       82.94441055        0.57615556
       92.97611       85.54471517        0.61125100
       93.07580       90.11532683        0.71658643
       93.17550       92.19975347        1.36344601
       93.27519       93.58011753        0.67347033
       93.37488       93.38404109        0.65395259
       93.47458       97.82649811        0.67719945
       93.57427       99.75637518        0.79087219
       93.67396       97.90147465        1.05847796
       93.77366       99.84262639        0.66239642
       93.87335       98.37774993        0.62790245
       93.97304       94.59212895        0.64122727
       94.07274       90.83649707        0.81528629
       94.17243       89.99345186        0.92579746
       94.27212       89.11440936        0.68606964
       94.37182       90.75082015        0.67494291
       94.47151       87.96480555        0.63607491
       94.57121       85.49559497        0.82725306
       94.67090       84.54665063        0.83204127
       94.77059       83.19647474        0.64147164
       94.87029       76.60582604        0.55910148
       94.96998       71.62385919        0.54699747
       95.06967       68.68209027        0.61717416
       95.16937       66.82988449        0.83311672
       95.26906       64.71648386        0.63311551
       95.36875       62.45547138        0.56414350
       95.46845       61.39736692        0.53745687
       95.56814       59.99052576        0.61117326
       95.66783       60.08381361        0.68717024
       95.76753       56.21230584        0.54888630
       95.86722       55.06030227        0.46199159
       95.96691       54.66596921        0.47745019
       96.06661       53.91592076        0.60733430
       96.16630       52.65855881        0.63992410
       96.26599       52.19471228        0.57211077
       96.36569       51.53627301        0.51003671
       96.46538       50.02630951        0.48483895
       96.56507       48.82787530        0.59108357
       96.66477       47.61904744        0.56867501
       96.76446       46.98560546        0.50473163
       96.86415       47.68709954        0.44050085
       96.96385       47.99211941        0.45644544
       97.06354       48.95349022        0.62346302
       97.16323       47.42461930        0.58659081
       97.26293       48.30876714        0.55630072
       97.36262       49.01464663        0.51896578
       97.46231       49.01784036        0.47745520
       97.56201       49.71136951        0.61179462
       97.66170       50.86393780        0.55595088
       97.76139       51.69201138        0.50924265
       97.86109       53.26852724        0.46757917
       97.96078       56.32686878        0.49157797
       98.06047       55.56543993        0.67807241
       98.16017       56.21598943        0.60636789
       98.25986       56.59278393        0.58116489
       98.35956       57.16691536        0.55150276
       98.45925       60.95614214        0.53190579
       98.55894       63.35783561        0.70767845
       98.65864       63.89625185        0.60982805
       98.75833       66.86486563        0.58318682
       98.85802       69.46184000        0.55525327
       98.95772       71.01061484        0.55781068
       99.05741       71.88660471        0.77925704
       99.15710       73.31049268        0.67692906
       99.25680       76.13039416        0.66863286
       99.35649       78.47344301        0.64680687
       99.45618       81.38426138        0.61414929
       99.55588       84.43602370        0.83629781
       99.65557       85.39453043        0.69395449
       99.75526       87.92414334        0.66027031
       99.85496       85.75527075        0.62040051
       99.95465       86.21622945        0.60990884
      100.05434       86.96800273        0.87275570
      100.15404       85.87905790        0.73036331
      100.25373       86.71331745        0.72521671
      100.35342       86.05897754        0.71957084
      100.45312       86.20615857        0.65718721
      100.55281       84.71338889        0.85543081
      100.65250       84.21489866        0.69477298
      100.75220       80.97639527        0.63071019
      100.85189       80.11778690        0.59935325
      100.95158       78.58755241        0.57759021
      101.05128       77.97895533        0.82019007
      101.15097       78.35551611        0.67954764
      101.25066       77.02445194        0.66552152
      101.35036       77.88738152        0.67514088
      101.45005       76.44834246        0.62883015
      101.54974       74.73057915        0.77415094
      101.64944       75.11441287        0.63327251
      101.74913       76.05723092        0.60050988
      101.84882       77.33159092        0.58955429
      101.94852       78.24560071        0.62477380
      102.04821       77.62746997        0.74946277
      102.14791       78.95418718        0.68134071
      102.24760       82.42283258        0.69067864
      102.34729       80.34647482        0.67889853
      102.44699       82.05570434        0.69821497
      102.54668       83.88176856        0.74099039
      102.64637       84.70033036        0.66510982
      102.74607       85.98240379        0.63834558
      102.84576       85.91226075        0.62596127
      102.94545       87.84207153        0.72113984
      103.04515       86.94437409        0.75938978
      103.14484       86.35168686        0.70700778
      103.24453       84.47113773        0.68825673
      103.34423       84.44597913        0.68258077
      103.44392       85.05499082        0.74213030
      103.54361       87.80361296        0.73284180
      103.64331       87.80157838        0.66707319
      103.74300       87.10741312        0.63370240
      103.84269       86.45525829        0.62032782
      103.94239       84.90197805        0.73853657
      104.04208       82.55527987        0.70426076
      104.14177       83.95605582        0.69113743
      104.24147       84.09565737        0.69137654
      104.34116       82.01011331        0.68674280
      104.44085       80.17167698        0.77093780
      104.54055       78.83868819        0.69201435
      104.64024       79.01474870        0.65123528
      104.73993       76.18860713        0.60993894
      104.83963       72.76825838        0.57395761
      104.93932       72.27170922        0.69336864
      105.03901       71.05561209        0.64766942
      105.13871       71.33927404        0.62490117
      105.23840       70.76384465        0.62195676
      105.33809       68.79425065        0.61665079
      105.43779       68.73201871        0.71716593
      105.53748       68.99164060        0.64438985
      105.63717       65.87514650        0.57685394
      105.73687       63.31371810        0.53796595
      105.83656       61.17378350        0.51508076
      105.93626       59.44869899        0.64327445
      106.03595       58.45213352        0.57801005
      106.13564       57.89956321        0.55595633
      106.23534       56.27420351        0.55469066
      106.33503       54.58368253        0.55165279
      106.43472       54.48984195        0.65160813
      106.53442       52.72341743        0.55733887
      106.63411       51.79119148        0.50171025
      106.73380       52.31204322        0.48061900
      106.83350       53.03295056        0.47675418
      106.93319       54.82126125        0.62855338
      107.03288       55.46570909        0.56040495
      107.13258       56.58228765        0.54950479
      107.23227       56.32100871        0.55616602
      107.33196       56.63709422        0.55622412
      107.43166       57.76553856        0.67508422
      107.53135       57.10844825        0.57907370
      107.63104       59.40357711        0.53798695
      107.73074       60.54202923        0.52117557
      107.83043       60.72981635        0.51540178
      107.93012       63.10037992        0.69527281
      108.02982       64.36590836        0.61475046
      108.12951       63.09946801        0.57869611
      108.22920       63.91430152        0.57316243
      108.32890       65.48867778        0.57480355
      108.42859       67.55657163        0.74120756
      108.52828       67.02922873        0.62621240
      108.62798       68.32472156        0.57341096
      108.72767       69.25273737        0.55419315
      108.82736       67.91689751        0.56078562
      108.92706       66.91232857        0.70483665
      109.02675       67.86345435        0.62108276
      109.12644       67.07540882        0.60257350
      109.22614       66.58037652        0.60076693
      109.32583       66.12080545        0.65233415
      109.42552       66.36406343        0.68938396
      109.52522       66.09338677        0.62066114
      109.62491       65.26821797        0.58657312
      109.72461       64.26136863        0.55635823
      109.82430       61.99609816        0.51026984
      109.92399       60.76900433        0.65670775
      110.02369       60.96090397        0.57601030
      110.12338       59.64543363        0.56592038
      110.22307       60.10093630        0.56387018
      110.32277       58.32280298        0.56704679
      110.42246       58.88228293        0.69283027
      110.52215       58.22694840        0.58346177
      110.62185       57.12138587        0.54453845
      110.72154       55.01806227        0.49840570
      110.82123       54.29799526        0.51129134
      110.92093       54.80315686        0.59915255
      111.02062       55.64712779        0.55785702
      111.12031       55.77381915        0.56267409
      111.22001       56.67937352        0.55668486
      111.31970       57.60415404        0.60916317
      111.41939       58.90578938        0.63756814
      111.51909       58.57789542        0.57687019
      111.61878       59.59287850        0.54820572
      111.71847       62.37297978        0.52205504
      111.81817       64.26723977        0.57534048
      111.91786       65.22896245        0.61008924
      112.01755       68.44842290        0.61058055
      112.11725       70.24314507        0.62341103
      112.21694       72.89974626        0.63252758
      112.31663       74.47968089        0.70471818
      112.41633       75.03471234        0.69494839
      112.51602       77.40920753        0.65027394
      112.61571       80.53418082        0.63304809
      112.71541       83.14161950        0.60642888
      112.81510       86.85365889        0.69542804
      112.91479       87.72390577        0.71204577
      113.01449       88.63115562        0.70097695
      113.11418       89.75158826        0.70317096
      113.21387       88.98795163        0.69689689
      113.31357       90.41483555        0.78032877
      113.41326       91.72339095        0.74709766
      113.51296       91.27035094        0.70096569
      113.61265       92.27279523        0.68018240
      113.71234       93.67053138        0.65475024
      113.81204       92.83265014        0.74663682
      113.91173       90.65799852        0.71471492
      114.01142       89.57465238        0.70314555
      114.11112       87.70618213        0.69518191
      114.21081       87.17378328        0.69801808
      114.31050       87.83237677        0.79465433
      114.41020       87.41761592        0.73251671
      114.50989       87.67294663        0.68678643
      114.60958       84.73579422        0.65305757
      114.70928       84.31127341        0.62823459
      114.80897       82.15949733        0.70312292
      114.90866       81.80578512        0.66171786
      115.00836       82.38782574        0.66102984
      115.10805       82.77799090        0.66624681
      115.20774       83.36844632        0.67880579
      115.30744       84.83618907        0.78642201
      115.40713       85.30542592        0.71433375
      115.50682       87.15172183        0.68186083
      115.60652       86.83276539        0.65591868
      115.70621       89.17213210        0.63907625
      115.80590       90.71546819        0.75215689
      115.90560       90.84912398        0.68224749
      116.00529       93.21386909        0.69906306
      116.10498       96.43020056        0.71884546
      116.20468       99.70483427        0.74814924
      116.30437      100.48954458        0.89546227
      116.40406      102.80311328        0.78914795
      116.50376      102.61147266        0.74502090
      116.60345      103.86200849        0.71966133
      116.70314      109.32641339        0.71661712
      116.80284      116.38197221        0.87957857
      116.90253      117.99028024        0.79689090
      117.00222      122.46960483        0.80606616
      117.10192      126.93291062        0.84324597
      117.20161      131.98476147        0.87107303
      117.30131      131.83280812        1.04171770
      117.40100      134.89792997        0.88635372
      117.50069      142.17753078        0.86529880
      117.60039      149.13298554        0.84909912
      117.70008      153.04349820        0.83384942
      117.79977      159.14792253        1.04303943
      117.89947      159.12229351        0.90666825
      117.99916      161.79399744        0.92556373
      118.09885      162.31767408        0.94452485
      118.19855      165.30497299        0.99884350
      118.29824      169.76432915        1.11049142
      118.39793      171.93943523        1.01504610
      118.49763      175.14885032        0.96724608
      118.59732      178.62245006        0.94361553
      118.69701      177.80850133        0.98062857
      118.79671      176.31697863        1.05413996
      118.89640      175.18181975        0.97947818
      118.99609      176.84154018        0.98332551
      119.09579      174.02734601        0.98637824
      119.19548      176.10890446        1.08457946
      119.29517      175.22043728        1.12378408
      119.39487      174.64560162        1.03126106
      119.49456      173.28096125        0.96780143
      119.59425      169.05738590        0.92771032
      119.69395      164.13057797        0.96358553
      119.79364      160.91406538        0.96371604
      119.89333      155.97513683        0.91751964
      119.99303      149.64292101        0.87652286
      120.09272      148.01769427        0.89137501
      120.19241      142.89905453        0.98360072
      120.29211      139.82356544        0.96253997
      120.39180      134.47798707        0.89976955
      120.49149      129.90833990        0.82185614
      120.59119      126.60070214        0.78704089
      120.69088      122.23134215        0.83188952
      120.79057      122.57310006        0.81521536
      120.89027      121.88658982        0.79801424
      120.98996      119.34180783        0.78323346
      121.08966      119.51095706        0.78967842
      121.18935      120.50610070        0.90909008
      121.28904      117.57196023        0.87475602
      121.38874      115.89771150        0.82106341
      121.48843      115.90675890        0.77553286
      121.58812      115.43129681        0.73808464
      121.68782      115.92127415        0.81947423
      121.78751      114.49551835        0.77587517
      121.88720      115.06982608        0.76794871
      121.98690      113.71556494        0.76895955
      122.08659      112.91912774        0.78150145
      122.18628      112.49188473        0.90480549
      122.28598      110.07489802        0.84133351
      122.38567      110.13388238        0.80599787
      122.48536      109.59320610        0.76047660
      122.58506      109.45301517        0.71977350
      122.68475      108.94881416        0.81368270
      122.78444      107.52070036        0.76094898
      122.88414      106.79418942        0.75184329
      122.98383      106.74034700        0.76704801
      123.08352      103.85407169        0.74976820
      123.18322      102.47396665        0.86843305
      123.28291      103.10429927        0.79178191
      123.38260      101.89460135        0.75970465
      123.48230      101.05883997        0.72909997
      123.58199       99.00412939        0.67427048
      123.68168       96.95840529        0.76115602
      123.78138       94.31338961        0.67698131
      123.88107       92.05293365        0.65310308
      123.98076       89.96049100        0.65734561
      124.08046       87.48974350        0.64115439
      124.18015       89.71384559        0.73514410
      124.27984       87.58842855        0.65055553
      124.37954       86.01288292        0.60817442
      124.47923       83.71096955        0.58550231
      124.57893       79.34705462        0.60686108
