        5.04553       51.95822991        1.14152812
        5.14523       53.73615815        1.11117446
        5.24492       50.82476882        1.06511369
        5.34461       50.50429307        0.97738983
        5.44431       51.41901962        1.07887403
        5.54400       49.76520756        0.88436786
        5.64369       51.84531746        0.90751778
        5.74339       50.89846875        0.80577160
        5.84308       50.22549070        0.81001131
        5.94277       48.86910058        0.79670579
        6.04247       50.67282621        0.78724353
        6.14216       50.99729610        0.72707979
        6.24185       49.63791626        0.73899177
        6.34155       49.60155858        0.70479983
        6.44124       51.16595210        0.75488094
        6.54093       52.03361159        0.72193308
        6.64063       50.29924501        0.67253984
        6.74032       50.72169890        0.67543144
        6.84001       51.25330587        0.67517749
        6.93971       50.99024894        0.67923760
        7.03940       50.61703812        0.63037501
        7.13909       50.62982907        0.62765062
        7.23879       51.33782683        0.62318171
        7.33848       52.32582133        0.63898831
        7.43817       51.95675562        0.62324366
        7.53787       51.32747513        0.61136643
        7.63756       52.46723027        0.58964712
        7.73725       52.70415953        0.61447880
        7.83695       52.64403154        0.59411905
        7.93664       53.32549837        0.62387748
        8.03633       53.50523546        0.56270099
        8.13603       53.77498543        0.55756191
        8.23572       52.64549660        0.56238993
        8.33541       53.37194741        0.56071480
        8.43511       53.75294060        0.59543557
        8.53480       54.00019303        0.55301878
        8.63449       53.82971753        0.54702272
        8.73419       53.53328436        0.53256223
        8.83388       54.63531999        0.54117457
        8.93357       55.18035167        0.54271702
        9.03327       55.55352028        0.53038545
        9.13296       55.15718029        0.52571494
        9.23265       56.65919856        0.53959938
        9.33235       56.19592749        0.55311638
        9.43204       56.09777467        0.55047758
        9.53174       56.79414433        0.53232655
        9.63143       56.88851656        0.55064647
        9.73112       58.61436033        0.55921081
        9.83082       58.63167700        0.58356983
        9.93051       57.23000126        0.56780813
       10.03020       58.78356440        0.55644676
       10.12990       59.34027393        0.54576746
       10.22959       60.30367126        0.57262809
       10.32928       59.26365911        0.59128084
       10.42898       60.15748047        0.58815474
       10.52867       62.09521848        0.57818934
       10.62836       61.04562554        0.57302523
       10.72806       61.11114198        0.58047077
       10.82775       61.82287654        0.58248285
       10.92744       62.89524289        0.59637996
       11.02714       63.50243278        0.57246715
       11.12683       64.67522292        0.59730188
       11.22652       64.11290540        0.60159582
       11.32622       64.53709566        0.61957194
       11.42591       65.86056687        0.60411361
       11.52560       65.67500726        0.59645290
       11.62530       66.69233796        0.60653402
       11.72499       66.93094042        0.61863616
       11.82468       69.41787778        0.64739017
       11.92438       67.45668494        0.60613694
       12.02407       68.57467457        0.60442726
       12.12376       69.35770831        0.61162303
       12.22346       70.07869423        0.65244944
       12.32315       71.04057790        0.66345033
       12.42284       71.85057523        0.63627218
       12.52254       72.78405137        0.63543129
       12.62223       73.58117109        0.65671123
       12.72192       73.61110137        0.63815106
       12.82162       76.29134460        0.70221082
       12.92131       75.22480647        0.64000346
       13.02100       76.96695391        0.64000666
       13.12070       77.58980694        0.65326927
       13.22039       79.33970580        0.68017686
       13.32008       78.69709635        0.70308748
       13.41978       79.44427518        0.67163972
       13.51947       81.22142480        0.69196864
       13.61916       81.37838880        0.66875697
       13.71886       83.79550999        0.71199695
       13.81855       82.34347673        0.71623162
       13.91824       83.42289359        0.67862835
       14.01794       86.25724731        0.67542711
       14.11763       87.92912988        0.70648989
       14.21733       88.49924406        0.71235953
       14.31702       89.19501790        0.75122839
       14.41671       90.37381184        0.73358634
       14.51641       91.33213247        0.71730645
       14.61610       93.58858006        0.73003196
       14.71579       96.20803208        0.75409587
       14.81549       97.35317355        0.79585759
       14.91518       99.25108369        0.73501585
       15.01487      101.59318049        0.75745912
       15.11457      104.73280729        0.77875550
       15.21426      110.07643587        0.82344715
       15.31395      115.76327528        0.86762253
       15.41365      118.63708423        0.85038111
       15.51334      129.87568513        0.86489111
       15.61303      138.30314754        0.92057318
       15.71273      153.53588015        0.95576686
       15.81242      165.26177177        1.04223701
       15.91211      171.41095831        1.02516417
       16.01181      195.00819172        1.05585261
       16.11150      221.46043138        1.16503816
       16.21119      255.13528539        1.29486060
       16.31089      298.43042216        1.41417162
       16.41058      343.05535045        1.49757830
       16.51027      417.27291385        1.70426053
       16.60997      496.27185451        1.81866202
       16.70966      549.75223468        1.97963454
       16.80935      562.14227779        2.03019031
       16.90905      544.37555970        1.93193926
       17.00874      442.71915796        1.63917514
       17.10843      347.49412300        1.51255061
       17.20813      282.43315763        1.35656818
       17.30782      233.79631341        1.23263291
       17.40751      185.73921920        1.08749268
       17.50721      160.07149468        0.97296378
       17.60690      137.26692673        0.92660384
       17.70659      124.53155348        0.88442898
       17.80629      112.44386715        0.84827846
       17.90598      107.08718142        0.77369909
       18.00567      100.94227538        0.76378796
       18.10537       98.26137525        0.73274782
       18.20506       95.22750472        0.78971657
       18.30475       93.51965018        0.74627057
       18.40445       92.47265943        0.72194228
       18.50414       90.52192477        0.73740487
       18.60383       88.14714360        0.71570694
       18.70353       86.20584179        0.74844565
       18.80322       87.20430830        0.70837012
       18.90292       84.23687735        0.68881888
       19.00261       82.64404019        0.66132743
       19.10230       82.95650504        0.70621913
       19.20200       81.28414614        0.71512743
       19.30169       80.04967144        0.68403567
       19.40138       78.30923566        0.67012949
       19.50108       78.35886087        0.68561985
       19.60077       75.48510640        0.66582485
       19.70046       75.96025602        0.70008528
       19.80016       73.50720434        0.65181662
       19.89985       73.74390349        0.63381298
       19.99954       72.36660909        0.63395074
       20.09924       72.12338342        0.64060864
       20.19893       70.55608689        0.67713645
       20.29862       69.95833058        0.63860579
       20.39832       71.34984266        0.66574653
       20.49801       68.63518098        0.64012859
       20.59770       67.36306199        0.64694493
       20.69740       67.02062000        0.66813442
       20.79709       65.76007865        0.63007521
       20.89678       65.77361984        0.61423535
       20.99648       65.03068566        0.62066774
       21.09617       64.08514357        0.64316705
       21.19586       64.02453333        0.64255565
       21.29556       63.63692891        0.62593903
       21.39525       62.56197563        0.62142747
       21.49494       61.74987053        0.60648924
       21.59464       61.10731314        0.61634739
       21.69433       60.93421038        0.64082545
       21.79402       60.71486321        0.58394263
       21.89372       59.77514393        0.56752860
       21.99341       60.04284147        0.59294025
       22.09310       58.87421843        0.58950306
       22.19280       58.94794958        0.62556669
       22.29249       59.28904671        0.58548306
       22.39218       57.00333353        0.58640772
       22.49188       56.90652734        0.58660014
       22.59157       57.59722975        0.59788200
       22.69126       57.38501343        0.62711406
       22.79096       56.27333021        0.56095176
       22.89065       58.78722502        0.56051603
       22.99034       56.62243044        0.56498781
       23.09004       56.72659949        0.59064214
       23.18973       57.42779787        0.59332366
       23.28942       56.09321252        0.57762582
       23.38912       55.16676997        0.57849132
       23.48881       55.72533955        0.58441464
       23.58851       55.35290070        0.58981780
       23.68820       54.38208598        0.61552882
       23.78789       54.09438504        0.54656492
       23.88759       54.36768969        0.55579336
       23.98728       53.42600998        0.56213405
       24.08697       54.40532342        0.55633506
       24.18667       53.47789059        0.59141117
       24.28636       53.96966296        0.56364758
       24.38605       53.49089172        0.57328112
       24.48575       53.44596567        0.57216894
       24.58544       54.40152203        0.59493482
       24.68513       52.57637619        0.58478552
       24.78483       53.85923305        0.54561297
       24.88452       52.76508249        0.53862718
       24.98421       53.67840736        0.56202821
       25.08391       53.07176634        0.57038830
       25.18360       52.31022156        0.57841969
       25.28329       51.87493485        0.55518971
       25.38299       53.54990023        0.56257033
       25.48268       52.00241011        0.55749342
       25.58237       52.51242210        0.58294239
       25.68207       53.06215225        0.57425366
       25.78176       52.12128077        0.53487375
       25.88145       52.92760607        0.55344922
       25.98115       52.92213086        0.55935984
       26.08084       53.08096486        0.57406208
       26.18053       51.52613215        0.58089821
       26.28023       53.51869216        0.56050016
       26.37992       51.80292985        0.55160601
       26.47961       51.55801133        0.56835121
       26.57931       53.02083907        0.60164466
       26.67900       52.33574863        0.55929048
       26.77869       51.94617038        0.55320825
       26.87839       52.11502452        0.54815126
       26.97808       52.50272606        0.54671419
       27.07777       53.32976503        0.59374013
       27.17747       52.62621113        0.56300082
       27.27716       51.78492986        0.54428024
       27.37685       51.90952531        0.56625499
       27.47655       52.96775933        0.56321833
       27.57624       52.56639089        0.58613706
       27.67593       53.02226134        0.57656192
       27.77563       53.71721039        0.55567495
       27.87532       53.23346137        0.54390817
       27.97501       52.71238600        0.55204365
       28.07471       51.77754722        0.57972789
       28.17440       53.02140125        0.56128464
       28.27410       52.95579297        0.55975235
       28.37379       53.57155899        0.57659389
       28.47348       54.27592635        0.57668223
       28.57318       53.32357258        0.61908758
       28.67287       53.42712358        0.55251653
       28.77256       54.53831277        0.54809931
       28.87226       53.85500437        0.55796505
       28.97195       54.20586649        0.56194008
       29.07164       54.69684607        0.61450486
       29.17134       54.73230317        0.55999351
       29.27103       53.80072045        0.56405778
       29.37072       53.93727002        0.58804748
       29.47042       53.28263972        0.57597236
       29.57011       53.70640347        0.61200662
       29.66980       55.50233745        0.56752975
       29.76950       54.89148161        0.56401539
       29.86919       55.20159853        0.55432460
       29.96888       55.93502201        0.58359281
       30.06858       56.26727574        0.60440124
       30.16827       56.36408784        0.57228428
       30.26796       56.60274974        0.57416185
       30.36766       56.33975149        0.58447572
       30.46735       57.28480511        0.59454784
       30.56704       56.76212694        0.62264509
       30.66674       57.88118477        0.58708709
       30.76643       57.98048379        0.57370476
       30.86612       58.43046163        0.58787237
       30.96582       59.37670148        0.59703129
       31.06551       59.23250624        0.62533276
       31.16520       60.82353665        0.59595474
       31.26490       61.80851142        0.59608723
       31.36459       64.14351939        0.61614013
       31.46428       69.06066970        0.66696762
       31.56398       75.13709688        0.70451091
       31.66367       79.85803239        0.67953944
       31.76336       92.31307450        0.73283227
       31.86306      115.24030276        0.81427018
       31.96275      146.67710310        0.94454510
       32.06244      177.80015914        1.08273646
       32.16214      213.68653101        1.12293047
       32.26183      226.89363793        1.18865521
       32.36152      209.55245600        1.18019185
       32.46122      180.73209937        1.10582916
       32.56091      152.54291289        1.03002521
       32.66060      121.33817103        0.86877189
       32.76030      103.39508524        0.78244974
       32.85999       97.99138395        0.77276059
       32.95969      109.22546837        0.82600475
       33.05938      135.43163477        0.94086942
       33.15907      183.52846554        1.04278707
       33.25877      272.41573245        1.33097523
       33.35846      419.73376083        1.70662120
       33.45815      626.29415461        2.24747780
       33.55785      833.40622792        2.68927712
       33.65754     1103.52541887        3.00968362
       33.75723     1321.55292739        3.40065624
       33.85693     1306.34368948        3.38486667
       33.95662     1111.62760337        3.12251437
       34.05631      869.05226585        2.64009435
       34.15601      564.39184018        1.98383437
       34.25570      353.81469504        1.51450491
       34.35539      222.88841755        1.20177405
       34.45509      144.10795285        1.00580031
       34.55478      103.76365721        0.79775782
       34.65447       80.21996707        0.67166094
       34.75417       72.90812694        0.65040857
       34.85386       68.61977234        0.62299344
       34.95355       64.88943662        0.62497984
       35.05325       63.37358221        0.63855612
       35.15294       62.40662710        0.59780949
       35.25263       59.32679515        0.59270294
       35.35233       59.01166307        0.60822442
       35.45202       56.49185417        0.62127320
       35.55171       56.05057258        0.60323798
       35.65141       54.52905279        0.57438134
       35.75110       53.12812600        0.56183881
       35.85079       52.30545387        0.55482681
       35.95049       51.37753424        0.56359955
       36.05018       51.42689703        0.55472840
       36.14987       50.61097211        0.52875721
       36.24957       48.95593068        0.54270165
       36.34926       48.17021404        0.54866483
       36.44895       48.10584287        0.55822981
       36.54865       48.18669928        0.53726526
       36.64834       47.49932862        0.52192709
       36.74803       47.39698805        0.52867351
       36.84773       45.94411205        0.51737073
       36.94742       46.00009606        0.56073732
       37.04711       45.88939628        0.49314361
       37.14681       45.15321038        0.49988567
       37.24650       45.35587071        0.51374362
       37.34619       44.77679213        0.52390764
       37.44589       44.45507567        0.55849371
       37.54558       44.53956025        0.50970701
       37.64528       43.84422988        0.50605344
       37.74497       44.36200596        0.50065416
       37.84466       43.91867963        0.52748522
       37.94436       42.92434663        0.53179047
       38.04405       43.44226014        0.48396447
       38.14374       43.41837143        0.48802313
       38.24344       43.47169233        0.49581415
       38.34313       43.34801798        0.51662006
       38.44282       43.66979574        0.56114507
       38.54252       44.82601911        0.50959371
       38.64221       45.69308508        0.51412588
       38.74190       48.06659095        0.53277607
       38.84160       53.30237838        0.56311618
       38.94129       57.67501607        0.61520609
       39.04098       65.42241087        0.58975546
       39.14068       73.93027090        0.65224027
       39.24037       76.42553918        0.66317021
       39.34006       73.81681429        0.67621616
       39.43976       69.21675366        0.71262536
       39.53945       62.09458069        0.60358372
       39.63914       53.07773424        0.55510782
       39.73884       47.74964461        0.52798448
       39.83853       44.75488125        0.50714434
       39.93822       43.39661205        0.52906767
       40.03792       42.37848271        0.47708720
       40.13761       42.45899813        0.47894196
       40.23730       42.84389054        0.49880715
       40.33700       44.67462538        0.52510329
       40.43669       42.86855908        0.53753306
       40.53638       43.53505813        0.50351380
       40.63608       44.39942733        0.51801138
       40.73577       43.94343089        0.51246404
       40.83546       44.14420981        0.51823225
       40.93516       43.81956834        0.52626928
       41.03485       43.34849336        0.49367112
       41.13454       42.34062848        0.48858457
       41.23424       42.81563125        0.50315080
       41.33393       41.00183733        0.51429936
       41.43362       41.40768699        0.53345295
       41.53332       41.85907039        0.50096523
       41.63301       42.31812693        0.51338070
       41.73270       41.40061205        0.49652733
       41.83240       41.62586296        0.51299143
       41.93209       41.93394175        0.51154791
       42.03179       42.45870915        0.46982154
       42.13148       43.10824886        0.49748106
       42.23117       45.66736926        0.51253283
       42.33087       48.25756662        0.56401712
       42.43056       54.13904136        0.58600751
       42.53025       61.25311394        0.60401425
       42.62995       74.68208325        0.67302981
       42.72964       94.53454474        0.76396890
       42.82933      109.30751658        0.83804632
       42.92903      120.68092214        0.85092177
       43.02872      121.83253682        0.81046830
       43.12841      107.96895855        0.77532577
       43.22811       90.16269633        0.74137081
       43.32780       70.66061956        0.68796011
       43.42749       59.13243876        0.61566557
       43.52719       50.42618365        0.54675714
       43.62688       44.85672211        0.51337875
       43.72657       42.13772958        0.50940727
       43.82627       41.46012546        0.52862957
       43.92596       40.20611448        0.47053308
       44.02565       39.53753575        0.46301599
       44.12535       38.20484644        0.47134787
       44.22504       38.95782836        0.49568076
       44.32473       38.12773272        0.51728840
       44.42443       37.32165772        0.49141235
       44.52412       37.40335479        0.47757266
       44.62381       38.22496828        0.49032265
       44.72351       36.83252585        0.46534253
       44.82320       37.65176880        0.52639736
       44.92289       36.76228382        0.43277110
       45.02259       36.89634052        0.43724413
       45.12228       37.01877225        0.45333981
       45.22197       36.56212755        0.46155742
       45.32167       36.85423224        0.51292341
       45.42136       36.71589023        0.46650691
       45.52105       35.85771064        0.45667932
       45.62075       35.17296432        0.45786412
       45.72044       35.73578471        0.46015006
       45.82013       35.83224535        0.50314339
       45.91983       35.60368442        0.42779982
       46.01952       35.00281125        0.43522925
       46.11921       34.94777989        0.43570016
       46.21891       35.04712800        0.45826026
       46.31860       35.64492836        0.49954357
       46.41829       34.75623570        0.45552249
       46.51799       34.24357767        0.45286359
       46.61768       35.32885063        0.45772479
       46.71738       34.31245879        0.46342156
       46.81707       34.42416380        0.48186667
       46.91676       34.89890848        0.42461006
       47.01646       34.93150461        0.43614134
       47.11615       35.50464121        0.44882967
       47.21584       34.99679335        0.45919992
       47.31554       35.12880738        0.49968425
       47.41523       35.08706172        0.46789618
       47.51492       35.01946341        0.46946183
       47.61462       34.32706423        0.46270563
       47.71431       34.79921115        0.47139211
       47.81400       34.09366092        0.47944276
       47.91370       34.39743161        0.42317536
       48.01339       33.74388567        0.41810609
       48.11308       34.26237133        0.43557373
       48.21278       33.25509176        0.44644923
       48.31247       32.81230469        0.45733919
       48.41216       33.03634221        0.42932880
       48.51186       34.23448556        0.45210903
       48.61155       33.38733200        0.44421701
       48.71124       33.95764136        0.45714593
       48.81094       33.12903239        0.44871208
       48.91063       33.90857346        0.40569014
       49.01032       33.39167770        0.41461533
       49.11002       34.01374842        0.43434827
       49.20971       32.83632325        0.44934555
       49.30940       33.25828079        0.46721045
       49.40910       33.67235389        0.44739991
       49.50879       33.55670968        0.45528777
       49.60848       32.85993284        0.45489951
       49.70818       33.43727339        0.47677088
       49.80787       33.49357748        0.46290551
       49.90756       33.17637046        0.41780470
       50.00726       34.06824832        0.43324656
       50.10695       34.11160875        0.44412297
       50.20664       34.75878808        0.47000962
       50.30634       34.54756112        0.49055319
       50.40603       34.45535169        0.45916819
       50.50572       34.18978149        0.45753295
       50.60542       34.54179911        0.46040396
       50.70511       34.21673405        0.47067845
       50.80480       34.42412482        0.46310288
       50.90450       35.39299022        0.42563541
       51.00419       35.88246111        0.43430078
       51.10388       37.27075360        0.45754528
       51.20358       39.49894244        0.50208881
       51.30327       42.80722795        0.51988763
       51.40297       48.74514878        0.53165260
       51.50266       55.24791664        0.57021144
       51.60235       66.55691711        0.63937450
       51.70205       73.82299600        0.71762697
       51.80174       80.61301622        0.69253227
       51.90143       84.78394205        0.66476594
       52.00113       83.71775753        0.66234685
       52.10082       74.34726663        0.64428195
       52.20051       64.18768029        0.65593861
       52.30021       56.06632834        0.58779838
       52.39990       47.48030949        0.52942652
       52.49959       40.68822593        0.49869109
       52.59929       37.62083747        0.48815982
       52.69898       36.30672796        0.52653861
       52.79867       36.23537573        0.44418701
       52.89837       34.87842841        0.41975361
       52.99806       33.69065959        0.41882914
       53.09775       34.18810839        0.43422560
       53.19745       32.88298502        0.48686475
       53.29714       32.60182836        0.42831309
       53.39683       33.59220599        0.45293502
       53.49653       33.67224735        0.45732541
       53.59622       33.07529475        0.45324077
       53.69591       33.55696232        0.50191231
       53.79561       32.48302621        0.41298113
       53.89530       32.07482284        0.40470353
       53.99499       32.12899909        0.41209322
       54.09469       32.07057661        0.43185121
       54.19438       31.43031078        0.46570978
       54.29407       31.15859233        0.42834106
       54.39377       31.94041665        0.43719357
       54.49346       31.91692583        0.43790574
       54.59315       32.35815731        0.44789173
       54.69285       32.28638851        0.47678621
       54.79254       31.02681305        0.40017448
       54.89223       30.47234194        0.39295755
       54.99193       31.28587922        0.41062727
       55.09162       31.38904297        0.42970671
       55.19131       32.29166222        0.46961674
       55.29101       31.28711759        0.43013207
       55.39070       31.75365567        0.44660214
       55.49039       31.65046736        0.44302760
       55.59009       31.27690668        0.45392816
       55.68978       31.46523186        0.46622270
       55.78947       30.75929954        0.40212232
       55.88917       31.33598178        0.40677473
       55.98886       32.62650488        0.41922651
       56.08856       35.12358353        0.44996820
       56.18825       37.93060389        0.50566777
       56.28794       40.65462217        0.47828602
       56.38764       45.56744249        0.52326398
       56.48733       50.56164890        0.55835874
       56.58702       54.44830347        0.59593684
       56.68672       55.49466288        0.62138334
       56.78641       58.73364315        0.55251177
       56.88610       56.99450139        0.54962068
       56.98580       51.01633556        0.51972204
       57.08549       45.87201740        0.52244292
       57.18518       41.81718728        0.51644007
       57.28488       37.38893496        0.45341795
       57.38457       33.45324145        0.45383728
       57.48426       32.83146074        0.45913586
       57.58396       31.85726858        0.46494485
       57.68365       30.11765635        0.45791138
       57.78334       30.83023389        0.40532236
       57.88304       30.54317814        0.40810999
       57.98273       29.94068195        0.40993033
       58.08242       29.90055694        0.44119988
       58.18212       29.44374834        0.44655534
       58.28181       29.08750230        0.41638828
       58.38150       29.78106454        0.44394976
       58.48120       30.38530183        0.45970321
       58.58089       30.50983225        0.46683837
       58.68058       30.98838143        0.46036404
       58.78028       32.16009343        0.40917478
       58.87997       34.22389399        0.41434676
       58.97966       37.11487744        0.44653782
       59.07936       40.54313352        0.49759501
       59.17905       44.30876977        0.52810955
       59.27874       49.42993854        0.53162443
       59.37844       52.32401856        0.56577405
       59.47813       54.01700290        0.59897059
       59.57782       52.61624052        0.61686284
       59.67752       50.29977320        0.56071053
       59.77721       47.83434065        0.50183517
       59.87690       41.03990521        0.46033522
       59.97660       37.21116344        0.45931923
       60.07629       34.07795279        0.47674337
       60.17598       31.52405828        0.43941272
       60.27568       30.55509950        0.41989384
       60.37537       29.67419487        0.42111704
       60.47506       28.28306990        0.42713969
       60.57476       28.43634017        0.47013629
       60.67445       28.38089679        0.40190261
       60.77415       28.40047698        0.38174373
       60.87384       27.90473717        0.37343493
       60.97353       28.52427903        0.39885538
       61.07323       28.37132617        0.44836929
       61.17292       27.74547173        0.38318355
       61.27261       27.37028043        0.39316514
       61.37231       27.50577010        0.40771541
       61.47200       27.91836281        0.42747776
       61.57169       27.31246912        0.48069732
       61.67139       27.25157322        0.39214705
       61.77108       26.90892011        0.38179818
       61.87077       27.00785171        0.37978533
       61.97047       27.27009170        0.39556709
       62.07016       27.33325292        0.44833961
       62.16985       26.88036679        0.38941743
       62.26955       26.45834470        0.40098021
       62.36924       26.49440773        0.41471756
       62.46893       26.82361753        0.43325092
       62.56863       26.44477737        0.48389692
       62.66832       26.78781682        0.39542210
       62.76801       27.38274531        0.38956504
       62.86771       27.01528891        0.37783195
       62.96740       27.02184352        0.38816568
       63.06709       26.90995607        0.43160361
       63.16679       26.15530986        0.37530150
       63.26648       25.94136392        0.38607575
       63.36617       27.01243209        0.41117483
       63.46587       27.14382781        0.42679792
       63.56556       27.16333681        0.45482350
       63.66525       26.85511124        0.38247764
       63.76495       26.09586181        0.36594517
       63.86464       27.01572230        0.37011186
       63.96433       26.65519039        0.38426079
       64.06403       26.75109746        0.41091175
       64.16372       26.96310033        0.38351095
       64.26341       26.49009404        0.39858934
       64.36311       27.26277945        0.41272866
       64.46280       26.71603169        0.43132097
       64.56249       27.22637524        0.44217605
       64.66219       27.49052988        0.38817358
       64.76188       26.98761291        0.37884217
       64.86157       27.60206945        0.38116691
       64.96127       27.62184298        0.40119198
       65.06096       28.36136804        0.44153381
       65.16065       27.53580050        0.39453480
       65.26035       28.53296076        0.40984680
       65.36004       28.52574156        0.42639816
       65.45974       29.28743744        0.44589150
       65.55943       29.71077367        0.46921012
       65.65912       29.83639930        0.40714588
       65.75882       30.32827665        0.40669229
       65.85851       32.69796148        0.42287369
       65.95820       33.65837217        0.45206605
       66.05790       35.17918336        0.47795758
       66.15759       36.95868392        0.46549346
       66.25728       39.20009662        0.49353914
       66.35698       42.15772659        0.53183244
       66.45667       46.84132978        0.59508513
       66.55636       51.60581913        0.62239903
       66.65606       60.68835037        0.60063204
       66.75575       78.90724772        0.67616176
       66.85544      108.44585201        0.79130653
       66.95514      159.41228589        1.00712603
       67.05483      226.14922896        1.22154890
       67.15452      325.12148756        1.41755982
       67.25422      446.06702763        1.77580669
       67.35391      557.90546253        2.11743693
       67.45360      657.15112650        2.47650867
       67.55330      730.10519334        2.55065925
       67.65299      805.40891266        2.44791437
       67.75268      838.07354877        2.47897050
       67.85238      811.77674972        2.45369220
       67.95207      740.91314286        2.47419375
       68.05176      644.68092975        2.14797928
       68.15146      501.65921719        1.82405567
       68.25115      363.59773538        1.60806831
       68.35084      266.71655090        1.42031765
       68.45054      199.64068610        1.34277300
       68.55023      145.85961153        0.97835554
       68.64992       96.34782502        0.73039856
       68.74962       66.88415823        0.61020092
       68.84931       51.61891485        0.54162485
       68.94900       45.03736586        0.57108613
       69.04870       38.59780082        0.44405782
       69.14839       35.87286469        0.44364921
       69.24808       34.57471662        0.46957561
       69.34778       32.00496305        0.46554703
       69.44747       32.46487038        0.54172564
       69.54716       31.09186319        0.41304097
       69.64686       29.92688355        0.39870415
       69.74655       29.10529456        0.39517812
       69.84625       27.84946195        0.39555021
       69.94594       27.73641596        0.44552775
       70.04563       28.16000330        0.37262392
       70.14533       28.30990201        0.38993968
       70.24502       28.48361973        0.41773268
       70.34471       28.87989507        0.44464136
       70.44441       28.45695522        0.51834226
       70.54410       29.75055421        0.41449340
       70.64379       29.80457224        0.41226569
       70.74349       31.61915732        0.43105319
       70.84318       32.34715666        0.45664380
       70.94287       33.47763198        0.51293821
       71.04257       34.05275778        0.42703386
       71.14226       34.32155410        0.44413283
       71.24195       33.82280686        0.46297862
       71.34165       33.99239041        0.48999846
       71.44134       31.82317676        0.52750987
       71.54103       31.47557666        0.42689025
       71.64073       30.17016466        0.40988955
       71.74042       29.35858268        0.39988961
       71.84011       27.18984711        0.39890538
       71.93981       26.97605188        0.43212240
       72.03950       26.34767221        0.36004626
       72.13919       25.01003305        0.36538393
       72.23889       25.00164880        0.37963094
       72.33858       23.79616319        0.41258496
       72.43827       24.01548866        0.45564712
       72.53797       23.93104198        0.37051450
       72.63766       24.82075449        0.37035681
       72.73735       24.33041115        0.35748639
       72.83705       24.44178585        0.37741975
       72.93674       25.45801952        0.40879970
       73.03643       25.28564073        0.35222193
       73.13613       25.79637614        0.37360580
       73.23582       26.86528996        0.40203343
       73.33551       27.83422277        0.45348812
       73.43521       29.11588550        0.50384291
       73.53490       30.36437020        0.41493056
       73.63459       30.52787577        0.40917767
       73.73429       31.71986467        0.41396201
       73.83398       31.57559729        0.43722951
       73.93367       31.27194309        0.45735633
       74.03337       31.76153168        0.40612237
       74.13306       30.80949317        0.42124193
       74.23275       30.43149441        0.43767664
       74.33245       29.00590219        0.46952281
       74.43214       29.15707235        0.48628251
       74.53184       26.70482928        0.39479549
       74.63153       25.00269881        0.37891841
       74.73122       24.21793036        0.37010055
       74.83092       24.42994521        0.39299602
       74.93061       23.49222494        0.39014547
       75.03030       23.45271945        0.35155025
       75.13000       22.94256892        0.35955709
       75.22969       23.20526746        0.37688433
       75.32938       22.29994464        0.40464229
       75.42908       22.53456014        0.41196855
       75.52877       22.66462783        0.35833659
       75.62846       22.11278940        0.35153532
       75.72816       21.99654211        0.35076493
       75.82785       22.87641114        0.38760726
       75.92754       22.42489976        0.36283840
       76.02724       22.44131767        0.33862547
       76.12693       22.29305015        0.35106497
       76.22662       22.45164509        0.37174450
       76.32632       22.64150499        0.42154727
       76.42601       21.56998301        0.38495084
       76.52570       21.67624082        0.35487740
       76.62540       21.76656198        0.35526064
       76.72509       22.21217356        0.35586722
       76.82478       22.80732959        0.41616982
       76.92448       23.02594654        0.33232522
       77.02417       22.04400347        0.33622791
       77.12386       21.89600990        0.35129622
       77.22356       21.68835168        0.37085036
       77.32325       21.73390116        0.45395043
       77.42294       20.68724370        0.35444439
       77.52264       22.19576061        0.36042000
       77.62233       22.08991440        0.35776087
       77.72202       21.91919571        0.35553895
       77.82172       21.51697167        0.41150363
       77.92141       22.27329974        0.32101339
       78.02110       21.51326158        0.33957922
       78.12080       21.37851567        0.35904704
       78.22049       21.58249106        0.38369306
       78.32018       21.45844247        0.44558495
       78.41988       21.71477394        0.35432172
       78.51957       21.23750763        0.36097862
       78.61926       21.88623458        0.36400655
       78.71896       21.67640373        0.36290879
       78.81865       21.16741038        0.39954382
       78.91834       21.38676077        0.30968428
       79.01804       21.36061606        0.34075620
       79.11773       22.06191963        0.36292190
       79.21743       22.12509842        0.38850714
       79.31712       21.82511643        0.43445932
       79.41681       22.29160329        0.35409886
       79.51651       21.93536571        0.35745858
       79.61620       22.54871700        0.36277704
       79.71589       23.03197726        0.37982604
       79.81559       23.93729570        0.40924881
       79.91528       25.19561144        0.35686368
       80.01497       25.95930869        0.37746621
       80.11467       26.44395119        0.39686928
       80.21436       27.46646774        0.43167944
       80.31405       27.14967182        0.50949719
       80.41375       27.75158991        0.39420853
       80.51344       27.04595261        0.38726143
       80.61313       27.54877690        0.40140114
       80.71283       26.52615323        0.40925545
       80.81252       27.53277195        0.46994087
       80.91221       26.07126543        0.34109970
       81.01191       24.04103982        0.35093698
       81.11160       23.76163781        0.37581259
       81.21129       23.11946585        0.40027460
       81.31099       21.47331123        0.42948764
       81.41068       21.88639928        0.33769447
       81.51037       20.98954119        0.33916966
       81.61007       21.90602661        0.36606934
       81.70976       21.43542318        0.37528614
       81.80945       21.18155539        0.39674639
       81.90915       21.38277612        0.30367869
       82.00884       21.00215629        0.32208642
       82.10853       21.17270345        0.36033771
       82.20823       21.37069292        0.40047832
       82.30792       20.69845710        0.41204429
       82.40761       20.96406720        0.33891109
       82.50731       21.95969995        0.35100584
       82.60700       22.04752691        0.37665778
       82.70669       21.98011957        0.40953006
       82.80639       20.89348079        0.38043877
       82.90608       21.39494929        0.31201427
       83.00577       20.85760972        0.32582727
       83.10547       20.90167440        0.38303221
       83.20516       22.11432110        0.44153061
       83.30485       21.84680086        0.41931311
       83.40455       22.38916263        0.35427092
       83.50424       22.78602544        0.34694004
       83.60393       22.90519562        0.38300052
       83.70363       23.10240631        0.43236190
       83.80332       23.54385330        0.38197339
       83.90302       24.57955208        0.32629653
       84.00271       24.89274977        0.34179415
       84.10240       25.78790374        0.42121567
       84.20210       25.62149138        0.50998184
       84.30179       25.28531519        0.41200955
       84.40148       26.14321608        0.36803063
       84.50118       25.56640485        0.35737914
       84.60087       25.33678462        0.40094947
       84.70056       25.99139162        0.52825109
       84.80026       24.84594133        0.36075857
       84.89995       24.86616552        0.32577764
       84.99964       23.59558467        0.33024218
       85.09934       23.04906064        0.38458480
       85.19903       22.27576540        0.64729646
       85.29872       21.85701284        0.33731014
       85.39842       21.72798233        0.34181293
       85.49811       20.85578248        0.32528558
       85.59780       21.22200005        0.36759831
       85.69750       21.24556450        0.66158975
       85.79719       21.01743414        0.31425199
       85.89688       20.95366977        0.30644786
       85.99658       21.22331588        0.31573051
       86.09627       21.41315762        0.36345812
       86.19596       22.39779152        0.71746275
       86.29566       21.31156719        0.32934391
       86.39535       20.95114963        0.32997870
       86.49504       21.10717061        0.32597881
       86.59474       21.56274242        0.35621736
       86.69443       21.69058452        0.74854702
       86.79412       22.08866557        0.31443828
       86.89382       21.58814524        0.30274401
       86.99351       21.58354215        0.31430098
       87.09320       21.62612208        0.34889166
       87.19290       21.35480634        0.82244363
       87.29259       20.84661215        0.32711815
       87.39228       22.71222105        0.34986141
       87.49198       21.90117553        0.33655367
       87.59167       22.81351465        0.34771627
       87.69136       22.53960839        1.03377252
       87.79106       21.32629057        0.31175729
       87.89075       21.98255798        0.31401390
       87.99044       20.44008575        0.31331517
       88.09014       20.60613981        0.33411772
       88.18983       18.64950132        1.69096170
       88.28952       20.90112332        0.34279901
       88.38922       21.06726645        0.34749740
       88.48891       21.37801881        0.33429345
       88.58861       20.76452808        0.31798632
       88.68830       23.11682460        2.63028245
       88.78799       20.22062861        0.30272066
       88.88769       20.30663671        0.29481517
       88.98738       20.54361406        0.30954853
       89.08707       20.94535887        0.32352045
       89.18677       21.92185452        2.69753272
       89.28646       20.82918123        0.32686371
       89.38615       20.61605321        0.32634203
       89.48585       20.80223511        0.32162460
       89.58554       20.16523154        0.30890559
       89.68523       21.46756454        2.57670743
       89.78493       20.40577281        0.30013981
       89.88462       20.61687884        0.29907766
       89.98431       20.05925369        0.30443082
       90.08401       20.99187803        0.32041251
       90.18370       21.40660887        2.67857170
       90.28339       20.77248726        0.32509024
       90.38309       20.95990613        0.33162030
       90.48278       21.05422924        0.32492844
       90.58247       21.19629693        0.32077866
       90.68217       22.93329985        2.63517335
       90.78186       20.83915171        0.30848756
       90.88155       21.55424390        0.30596016
       90.98125       21.39108622        0.31327345
       91.08094       22.04365225        0.32823689
       91.18063       23.17976981        2.68402062
       91.28033       21.91746690        0.33630639
       91.38002       20.99216821        0.33613191
       91.47971       22.40511214        0.33896817
       91.57941       22.69069552        0.33478954
       91.67910       24.52982019        2.63805878
       91.77879       23.92352812        0.32933903
       91.87849       23.94771344        0.32268235
       91.97818       25.04820393        0.34274287
       92.07787       26.40813866        0.36515342
       92.17757       31.12731946        3.01349004
       92.27726       29.98339955        0.40100224
       92.37695       33.86969931        0.44033872
       92.47665       38.60931553        0.45213325
       92.57634       45.19646896        0.47129863
       92.67603       59.75133728        3.55154989
       92.77573       57.86809946        0.51494874
       92.87542       77.10989673        0.58417104
       92.97511      104.29878709        0.71094605
       93.07481      136.51393052        0.93309420
       93.17450      150.04962692        1.85012741
       93.27420      177.14120026        0.99896703
       93.37389      211.03167796        1.06765828
       93.47358      244.57108619        1.16302069
       93.57328      271.67503553        1.42605235
       93.67297      283.43476942        1.96839605
       93.77266      304.70307806        1.26926436
       93.87236      328.02261269        1.25537648
       93.97205      349.31495480        1.36941991
       94.07174      367.58720576        1.84420443
       94.17144      365.89838920        2.10168933
       94.27113      361.48016488        1.54382026
       94.37082      348.50686072        1.46537173
       94.47052      331.46939291        1.36815284
       94.57021      305.05998876        1.72278290
       94.66990      293.36877765        1.70097445
       94.76960      260.34022794        1.23213624
       94.86929      221.15553691        1.03563579
       94.96898      177.68954582        0.93424195
       95.06868      141.96484157        0.95140394
       95.16837      127.49573500        1.22718159
       95.26806      110.45693574        0.87914756
       95.36776       89.94843729        0.71584374
       95.46745       69.12546561        0.60003391
       95.56714       56.13583045        0.61835334
       95.66684       50.17282992        0.66062738
       95.76653       44.76065174        0.51798540
       95.86622       38.01978712        0.40584187
       95.96592       33.21109629        0.39068955
       96.06561       31.61985425        0.48823015
       96.16530       30.67562606        0.51034741
       96.26500       30.48795010        0.45724343
       96.36469       29.09151493        0.39822871
       96.46438       30.02452791        0.39366925
       96.56408       32.48418230        0.51164929
       96.66377       32.54113697        0.49741975
       96.76346       32.24539219        0.44110085
       96.86316       33.04541737        0.38536936
       96.96285       34.06855172        0.40374568
       97.06254       34.16204094        0.54487837
       97.16224       34.28550168        0.52238987
       97.26193       34.07158792        0.48699228
       97.36162       35.38413384        0.46456448
       97.46132       36.06556170        0.43575642
       97.56101       35.27788884        0.54416545
       97.66071       34.46907787        0.48122395
       97.76040       33.87072033        0.43356052
       97.86009       32.32494758        0.38163205
       97.95979       30.74035344        0.37810381
       98.05948       29.14940290        0.51474483
       98.15917       29.67670488        0.46388410
       98.25887       28.28340454        0.43502476
       98.35856       26.44604910        0.39525443
       98.45825       24.99412963        0.35713917
       98.55795       24.62944200        0.46253210
       98.65764       23.68316657        0.38857724
       98.75733       23.27718477        0.35815625
       98.85703       22.88583255        0.33101534
       98.95672       22.55915435        0.32983478
       99.05641       22.23595469        0.45659979
       99.15611       22.01303282        0.38967243
       99.25580       22.00692578        0.37576856
       99.35549       22.04240990        0.35733827
       99.45519       21.98237933        0.33224323
       99.55488       22.11903560        0.44486005
       99.65457       21.71437162        0.36299983
       99.75427       22.05183986        0.34258065
       99.85396       21.97378742        0.32946320
       99.95365       21.67906011        0.32073663
      100.05335       22.27650804        0.46089253
      100.15304       21.78276384        0.38272829
      100.25273       22.12710739        0.38127078
      100.35243       21.63428074        0.37417961
      100.45212       21.38772092        0.33932902
      100.55181       21.26359736        0.44533950
      100.65151       21.61219122        0.36718599
      100.75120       20.81323755        0.33542234
      100.85089       21.34554715        0.32394987
      100.95059       20.94910392        0.31171739
      101.05028       20.55175414        0.44040502
      101.14997       21.68093621        0.37278851
      101.24967       21.12156063        0.36251568
      101.34936       20.49954926        0.35863766
      101.44905       21.13949205        0.34546123
      101.54875       21.23372204        0.43509336
      101.64844       20.71620057        0.34962098
      101.74813       21.19946156        0.33172201
      101.84783       20.37946535        0.31518751
      101.94752       20.32902595        0.33161996
      102.04721       20.11372046        0.39637901
      102.14691       20.11142558        0.35679279
      102.24660       20.15897594        0.35428087
      102.34630       19.79218264        0.35366935
      102.44599       20.31353856        0.36355369
      102.54568       19.47982941        0.37260149
      102.64538       20.04390114        0.33702161
      102.74507       19.54931099        0.31609181
      102.84476       19.85371325        0.31205099
      102.94446       19.18055371        0.34781612
      103.04415       19.81668371        0.37767320
      103.14384       20.27026445        0.35797817
      103.24354       19.78628714        0.34874353
      103.34323       19.64570138        0.34404412
      103.44292       19.26265190        0.36859575
      103.54262       19.54280211        0.36038420
      103.64231       19.92999573        0.33044295
      103.74200       19.37916446        0.31021609
      103.84170       19.30372356        0.30356135
      103.94139       19.73707569        0.37283161
      104.04108       19.51700489        0.35904535
      104.14078       19.60223533        0.34854426
      104.24047       19.89829985        0.35027940
      104.34016       20.01870852        0.35285106
      104.43986       19.70161462        0.39861795
      104.53955       19.16620618        0.35442495
      104.63924       20.00935873        0.33964609
      104.73894       20.01649226        0.32648208
      104.83863       19.35872365        0.31161560
      104.93832       19.76868416        0.38135143
      105.03802       19.39311071        0.35449881
      105.13771       19.69355268        0.34372976
      105.23740       19.29987295        0.33894513
      105.33710       19.83540901        0.34441695
      105.43679       19.60126742        0.39856469
      105.53648       19.51757783        0.35779057
      105.63618       20.86389571        0.34035775
      105.73587       20.10927609        0.31960514
      105.83556       20.20177849        0.31146875
      105.93526       19.95660164        0.39154843
      106.03495       20.08144192        0.35570303
      106.13464       20.02266334        0.34279599
      106.23434       20.04252934        0.34497099
      106.33403       19.98018599        0.34815219
      106.43372       20.04790713        0.41711982
      106.53342       20.01771408        0.36310375
      106.63311       20.35193236        0.33292134
      106.73280       20.38626053        0.31645500
      106.83250       20.36925746        0.31086301
      106.93219       20.12212860        0.39982219
      107.03189       20.18544910        0.35486834
      107.13158       20.56239628        0.34693183
      107.23127       20.26526776        0.35079754
      107.33097       19.73283444        0.34628027
      107.43066       20.89601380        0.42941879
      107.53035       19.43197626        0.35581025
      107.63005       19.80684877        0.32689553
      107.72974       19.80202101        0.31316206
      107.82943       19.45146735        0.30598034
      107.92913       19.50036404        0.40496997
      108.02882       19.56177120        0.35558784
      108.12851       20.61194179        0.34899126
      108.22821       19.74413683        0.33667525
      108.32790       19.43478871        0.32970513
      108.42759       20.64510838        0.43098901
      108.52729       20.74668053        0.36634610
      108.62698       20.22992915        0.32699414
      108.72667       20.21882880        0.31333512
      108.82637       20.48302171        0.32313244
      108.92606       21.05996635        0.41714079
      109.02575       21.31407982        0.36715372
      109.12545       21.21363918        0.35670494
      109.22514       22.17426769        0.36380930
      109.32483       23.56177766        0.40794068
      109.42453       24.37477940        0.43748393
      109.52422       23.44808094        0.38700707
      109.62391       23.90265427        0.37125523
      109.72361       24.89277498        0.36285121
      109.82330       26.13029294        0.34986156
      109.92299       26.49782872        0.45821425
      110.02269       26.73743018        0.40135801
      110.12238       27.59043551        0.40479150
      110.22207       27.09298708        0.39762685
      110.32177       27.12806217        0.40560630
      110.42146       27.03468964        0.49070591
      110.52115       27.78576228        0.42333056
      110.62085       28.83686676        0.40822275
      110.72054       29.21704226        0.38583397
      110.82023       29.18828653        0.39691333
      110.91993       29.13533215        0.46070839
      111.01962       28.96232511        0.42438180
      111.11931       28.49633276        0.42288177
      111.21901       27.91440452        0.41012162
      111.31870       27.05976363        0.43725034
      111.41839       26.98799391        0.45460081
      111.51809       26.29660824        0.40932919
      111.61778       25.83678466        0.38199024
      111.71748       24.70926069        0.34615223
      111.81717       24.30224497        0.37153105
      111.91686       23.39235053        0.38305098
      112.01656       23.33792930        0.37356013
      112.11625       21.91869026        0.36415589
      112.21594       21.79412584        0.36237061
      112.31564       22.56198741        0.40874240
      112.41533       21.18960674        0.38883167
      112.51502       21.18424051        0.35740449
      112.61472       20.15702649        0.33212152
      112.71441       20.36192489        0.31435664
      112.81410       19.96860423        0.34797203
      112.91380       20.28216686        0.35684610
      113.01349       20.24961473        0.34976260
      113.11318       20.41185771        0.35143335
      113.21288       19.89629799        0.34637003
      113.31257       20.55246540        0.38906531
      113.41226       20.06814396        0.36457262
      113.51196       18.71805007        0.33094379
      113.61165       19.80519159        0.32861448
      113.71134       19.63161988        0.31157311
      113.81104       19.37882698        0.35468316
      113.91073       19.71813474        0.34881926
      114.01042       19.88435510        0.34734569
      114.11012       19.65844188        0.34477464
      114.20981       19.26050175        0.34269439
      114.30950       19.75130653        0.39327590
      114.40920       19.29733040        0.35880994
      114.50889       19.36677106        0.33648832
      114.60858       19.36673916        0.32632192
      114.70828       20.08563015        0.32114237
      114.80797       19.96332180        0.36489574
      114.90766       19.81944039        0.34218729
      115.00736       19.57932796        0.33779852
      115.10705       18.93478723        0.33320157
      115.20674       19.33084978        0.34195373
      115.30644       19.07284959        0.38906213
      115.40613       20.45235032        0.36549839
      115.50582       19.60151319        0.33847500
      115.60552       20.45418689        0.33483643
      115.70521       19.93199982        0.31815237
      115.80490       19.34555967        0.36466554
      115.90460       19.67989948        0.33273553
      116.00429       20.06513667        0.33995822
      116.10398       19.51193062        0.33735054
      116.20368       19.55100947        0.34518120
      116.30337       20.12416104        0.41838343
      116.40307       20.11210027        0.36563822
      116.50276       20.37099191        0.34859993
      116.60245       19.80210953        0.33037440
      116.70215       20.39101478        0.32307306
      116.80184       19.75238819        0.37716028
      116.90153       20.37087764        0.34481316
      117.00123       20.64745047        0.34408492
      117.10092       19.52564542        0.34331242
      117.20061       20.68171846        0.35879594
      117.30031       20.31721105        0.42755231
      117.40000       20.99600792        0.36414179
      117.49969       20.03701789        0.33758741
      117.59939       21.45170552        0.33340647
      117.69908       21.26243685        0.32131511
      117.79877       21.59884213        0.39714712
      117.89847       22.00558826        0.34810056
      117.99816       22.24114766        0.35507245
      118.09785       22.79288264        0.36821594
      118.19755       24.66619723        0.40031059
      118.29724       24.01969212        0.43048178
      118.39693       25.08317188        0.40136164
      118.49663       26.01251939        0.38448859
      118.59632       28.20515131        0.38546923
      118.69601       30.54252128        0.41939664
      118.79571       33.35230389        0.47437785
      118.89540       35.39151682        0.45695844
      118.99509       38.88691466        0.47939058
      119.09479       42.05795674        0.50269360
      119.19448       46.26473549        0.57464344
      119.29417       50.95791338        0.62766252
      119.39387       57.05092801        0.61197624
      119.49356       65.57244489        0.61808286
      119.59325       77.39246220        0.65486321
      119.69295       91.07539119        0.75349246
      119.79264      106.09607606        0.82608670
      119.89233      118.17212267        0.84674550
      119.99203      134.76286730        0.88566162
      120.09172      152.76656665        0.96535686
      120.19141      167.95249033        1.13891118
      120.29111      177.23567276        1.15787789
      120.39080      190.77450347        1.15054159
      120.49049      203.02990327        1.10976726
      120.59019      215.62434792        1.11385857
      120.68988      227.45330048        1.23555524
      120.78957      232.03220107        1.21952827
      120.88927      238.39031034        1.21698602
      120.98896      247.79352129        1.22990784
      121.08866      253.26008601        1.24993596
      121.18835      260.74389030        1.45918404
      121.28804      266.35887027        1.43897757
      121.38774      271.88222474        1.38036848
      121.48743      274.55045342        1.31388450
      121.58712      277.05775324        1.25884574
      121.68682      275.55581920        1.38229912
      121.78651      271.84292547        1.30917447
      121.88620      270.46329013        1.28936046
      121.98590      264.42942546        1.28135828
      122.08559      255.03220383        1.28066403
      122.18528      250.85419498        1.48186207
      122.28498      240.13776588        1.35877037
      122.38467      229.21190716        1.26730005
      122.48436      211.71549266        1.14778001
      122.58406      191.76676513        1.02961531
      122.68375      169.85457627        1.09264270
      122.78344      154.24377522        0.97465805
      122.88314      137.98415911        0.91249961
      122.98283      123.49923287        0.87946221
      123.08252      108.52573701        0.81912596
      123.18222       98.39881946        0.90647098
      123.28191       86.59945722        0.76875154
      123.38160       77.00991766        0.69852962
      123.48130       67.90802601        0.63022766
      123.58099       60.66315051        0.55554403
      123.68068       54.33426426        0.59899502
      123.78038       49.48353141        0.51563322
      123.88007       42.94012417        0.47096355
      123.97976       39.31552510        0.45761137
      124.07946       34.42413879        0.42286532
      124.17915       31.77739688        0.45722082
      124.27884       28.72240371        0.38892968
      124.37854       26.70591788        0.35261137
      124.47823       24.95722593        0.33349429
      124.57792       23.22339869        0.34267503
