        5.04553       42.00197934        1.02433712
        5.14523       40.55161140        0.96273381
        5.24492       41.22886446        0.95750314
        5.34461       40.79877433        0.87679543
        5.44431       40.99995668        0.96140530
        5.54400       40.04334632        0.79177951
        5.64369       39.24145953        0.78755137
        5.74339       41.65457564        0.72761980
        5.84308       40.79865087        0.72869929
        5.94277       40.80500377        0.72687336
        6.04247       39.94509081        0.69747808
        6.14216       41.70488603        0.65631319
        6.24185       39.97729866        0.66193357
        6.34155       40.05829646        0.63219343
        6.44124       40.40643736        0.66940332
        6.54093       38.98129664        0.62322906
        6.64063       40.80219073        0.60460147
        6.74032       40.69065553        0.60377197
        6.84001       40.19160188        0.59658355
        6.93971       40.44132665        0.60364932
        7.03940       39.63788629        0.55662212
        7.13909       40.86367703        0.56279342
        7.23879       41.22086718        0.55729881
        7.33848       41.12630150        0.56523490
        7.43817       42.68672639        0.56389092
        7.53787       41.29286252        0.54727482
        7.63756       41.42132510        0.52276798
        7.73725       41.94354691        0.54700608
        7.83695       41.97540996        0.52939475
        7.93664       41.11135228        0.54645592
        8.03633       41.20275215        0.49257949
        8.13603       41.79821821        0.49039518
        8.23572       41.76310444        0.49982418
        8.33541       41.13778552        0.49107312
        8.43511       42.45689995        0.52800047
        8.53480       42.46398736        0.48927966
        8.63449       42.36318193        0.48417167
        8.73419       42.43748291        0.47312705
        8.83388       42.63352258        0.47691206
        8.93357       42.64011183        0.47588670
        9.03327       42.46406392        0.46249765
        9.13296       42.00906993        0.45759167
        9.23265       43.54483835        0.47180795
        9.33235       43.32299124        0.48440281
        9.43204       43.07341878        0.48110539
        9.53174       42.89580064        0.46134227
        9.63143       43.58433626        0.48069495
        9.73112       43.65574011        0.48115734
        9.83082       44.27660031        0.50566442
        9.93051       43.87497267        0.49583542
       10.03020       44.85567404        0.48472109
       10.12990       44.73388821        0.47247285
       10.22959       45.88536532        0.49805957
       10.32928       44.88492551        0.51309353
       10.42898       46.15363191        0.51372559
       10.52867       45.43801006        0.49293558
       10.62836       45.92839830        0.49552667
       10.72806       46.07635203        0.50251210
       10.82775       46.95503765        0.50611925
       10.92744       46.29068316        0.50992450
       11.02714       47.71251518        0.49464198
       11.12683       47.92348472        0.51242689
       11.22652       48.12937638        0.51956456
       11.32622       48.21425925        0.53375962
       11.42591       47.92878951        0.51348773
       11.52560       48.31759687        0.50980768
       11.62530       47.90317788        0.51209053
       11.72499       48.69656560        0.52573790
       11.82468       49.56143530        0.54482044
       11.92438       49.80216561        0.51896104
       12.02407       50.41026833        0.51632977
       12.12376       49.99614077        0.51725184
       12.22346       50.72202951        0.55290466
       12.32315       50.27654323        0.55578626
       12.42284       50.45528061        0.53087749
       12.52254       51.85393512        0.53406923
       12.62223       50.72953111        0.54275378
       12.72192       51.89342521        0.53344901
       12.82162       52.92440329        0.58209532
       12.92131       53.07954225        0.53519603
       13.02100       53.94977200        0.53333031
       13.12070       54.14942382        0.54314770
       13.22039       55.11494794        0.56412098
       13.32008       54.74211805        0.58354694
       13.41978       54.53132738        0.55363887
       13.51947       55.81971402        0.57069015
       13.61916       55.89195265        0.55136089
       13.71886       56.31608184        0.58043400
       13.81855       59.22500405        0.60458301
       13.91824       58.65438122        0.56618031
       14.01794       59.69520643        0.55886247
       14.11763       61.43059309        0.58734596
       14.21733       60.91149729        0.58768226
       14.31702       62.03251563        0.62303736
       14.41671       63.18102063        0.60999266
       14.51641       64.34768393        0.59879830
       14.61610       65.07337925        0.60522465
       14.71579       66.22834096        0.62186641
       14.81549       68.07218546        0.66155216
       14.91518       69.20865600        0.61004412
       15.01487       72.89357385        0.63789269
       15.11457       78.38233635        0.67013194
       15.21426       84.93808191        0.71969026
       15.31395       90.65173162        0.76391865
       15.41365       98.46049507        0.77160110
       15.51334      114.35353686        0.80910212
       15.61303      129.27880560        0.88851920
       15.71273      152.70288044        0.95313591
       15.81242      171.92018359        1.06458473
       15.91211      183.92911838        1.06473586
       16.01181      222.04262274        1.13283693
       16.11150      267.54120878        1.29221800
       16.21119      330.82792865        1.49613160
       16.31089      405.35167829        1.68159538
       16.41058      474.37842868        1.80406408
       16.51027      599.57727016        2.10994437
       16.60997      771.89074810        2.37658309
       16.70966      933.72891396        2.74710358
       16.80935     1020.84327798        2.94543660
       16.90905     1124.84514209        3.04531169
       17.00874      957.35862837        2.62523389
       17.10843      751.90445936        2.38757595
       17.20813      579.35569881        2.05078204
       17.30782      446.17024619        1.77225868
       17.40751      311.34477341        1.44293745
       17.50721      242.04338370        1.21615054
       17.60690      181.60687570        1.07549555
       17.70659      143.99522494        0.95493324
       17.80629      116.44071622        0.86404586
       17.90598       95.41969993        0.72868003
       18.00567       83.36756250        0.69169581
       18.10537       77.72145545        0.64899975
       18.20506       72.60448897        0.68642320
       18.30475       68.91529304        0.63744381
       18.40445       66.58370283        0.60939873
       18.50414       65.16486564        0.62244939
       18.60383       62.94596164        0.60172101
       18.70353       62.40340055        0.63372608
       18.80322       61.31383605        0.59086347
       18.90292       58.11695791        0.56911263
       19.00261       57.10771067        0.54689334
       19.10230       55.58335460        0.57486261
       19.20200       55.03199297        0.58528325
       19.30169       54.14327615        0.55960240
       19.40138       54.58034631        0.55676988
       19.50108       53.02754748        0.56111168
       19.60077       52.64745152        0.55348043
       19.70046       51.73912944        0.57494414
       19.80016       51.86086241        0.54509446
       19.89985       51.42369874        0.52687763
       19.99954       50.80835166        0.52887429
       20.09924       50.14677222        0.53178533
       20.19893       49.78853674        0.56642571
       20.29862       49.74428060        0.53629556
       20.39832       49.14767462        0.55005076
       20.49801       48.97049283        0.53855466
       20.59770       47.88797128        0.54331897
       20.69740       46.74716145        0.55571091
       20.79709       47.80667681        0.53527733
       20.89678       46.64706053        0.51527252
       20.99648       45.77407102        0.51869621
       21.09617       45.74770123        0.54139834
       21.19586       44.97205905        0.53645139
       21.29556       45.06035166        0.52473424
       21.39525       45.25051304        0.52665592
       21.49494       44.99156403        0.51594163
       21.59464       44.26098524        0.52277061
       21.69433       43.74033049        0.54105307
       21.79402       43.33590066        0.49160821
       21.89372       43.77903033        0.48412686
       21.99341       43.12641688        0.50080258
       22.09310       42.65584622        0.50013877
       22.19280       42.23255023        0.52770965
       22.29249       43.07766972        0.49743001
       22.39218       42.49314479        0.50482615
       22.49188       41.51596369        0.49948415
       22.59157       42.23610990        0.51040185
       22.69126       42.36099046        0.53717623
       22.79096       41.75137325        0.48177142
       22.89065       42.01648835        0.47226290
       22.99034       41.39310590        0.48158840
       23.09004       41.78337439        0.50538908
       23.18973       41.58292906        0.50326847
       23.28942       42.13664647        0.49923507
       23.38912       41.49446698        0.50033668
       23.48881       41.37691570        0.50213582
       23.58851       40.12330421        0.50062481
       23.68820       40.40407685        0.52907104
       23.78789       41.51237900        0.47759871
       23.88759       40.60996986        0.47902717
       23.98728       40.12668511        0.48587302
       24.08697       40.01032278        0.47571215
       24.18667       40.20948235        0.51146016
       24.28636       39.79634793        0.48263323
       24.38605       39.81053097        0.49321278
       24.48575       39.38528920        0.48978617
       24.58544       40.11607418        0.50941950
       24.68513       39.07393431        0.50276886
       24.78483       39.65715044        0.46684783
       24.88452       39.11933590        0.46251001
       24.98421       39.14172384        0.47852803
       25.08391       38.92628130        0.48710761
       25.18360       39.62328246        0.50213822
       25.28329       38.69334476        0.47822612
       25.38299       39.44620886        0.48146969
       25.48268       38.43778981        0.47799657
       25.58237       38.95234104        0.50070208
       25.68207       38.45515721        0.48742871
       25.78176       37.92894878        0.45497652
       25.88145       37.96708675        0.46733674
       25.98115       38.38719914        0.47500139
       26.08084       38.36861913        0.48662032
       26.18053       38.82632366        0.50297471
       26.28023       39.39382171        0.47951603
       26.37992       38.90666105        0.47680768
       26.47961       38.48208800        0.48973400
       26.57931       38.93752346        0.51412800
       26.67900       38.40690547        0.47777912
       26.77869       38.69963631        0.47622472
       26.87839       38.27572502        0.46846033
       26.97808       39.39115845        0.47231121
       27.07777       38.73004256        0.50449713
       27.17747       37.81314996        0.47580904
       27.27716       38.35556324        0.46715912
       27.37685       38.59715855        0.48697518
       27.47655       38.60945302        0.47947065
       27.57624       38.93143216        0.50304555
       27.67593       39.29735734        0.49499634
       27.77563       38.85932733        0.47120666
       27.87532       39.56383844        0.46761757
       27.97502       39.46652916        0.47640763
       28.07471       39.25478369        0.50351516
       28.17440       39.34043192        0.48215282
       28.27410       39.43993653        0.48175883
       28.37379       39.01664382        0.49063135
       28.47348       39.19107640        0.48854599
       28.57318       38.96326696        0.52767366
       28.67287       39.11373033        0.47138801
       28.77256       39.10494445        0.46267020
       28.87226       39.40530416        0.47589208
       28.97195       39.45117905        0.47797618
       29.07164       39.44392188        0.52023325
       29.17134       39.25152377        0.47275098
       29.27103       40.11785966        0.48574237
       29.37072       39.51710425        0.50188053
       29.47042       40.09973345        0.49834765
       29.57011       39.71925050        0.52483558
       29.66980       40.96252314        0.48613440
       29.76950       40.48057374        0.48295102
       29.86919       39.45837760        0.46717242
       29.96888       40.41389524        0.49450794
       30.06858       41.59467814        0.51812487
       30.16827       41.42024471        0.48911405
       30.26796       41.28039418        0.48881643
       30.36766       42.52316956        0.50637084
       30.46735       42.91963732        0.51314705
       30.56704       43.98820871        0.54672810
       30.66674       44.00953974        0.51050464
       30.76643       43.58618831        0.49598248
       30.86612       45.36448659        0.51663956
       30.96582       45.53003668        0.52135514
       31.06551       47.28949419        0.55742071
       31.16520       48.60900964        0.53147255
       31.26490       51.92787861        0.54531229
       31.36459       58.58173049        0.58821721
       31.46428       68.49823087        0.66425865
       31.56398       86.16853063        0.75629149
       31.66367      101.31607971        0.76892062
       31.76336      135.45043519        0.89569675
       31.86306      196.01371472        1.07953256
       31.96275      280.10834839        1.34021319
       32.06244      340.14281826        1.54555752
       32.16214      402.40386197        1.59740422
       32.26183      398.97923516        1.62869593
       32.36152      339.04928240        1.53925087
       32.46122      265.53628328        1.36305437
       32.56091      199.47882936        1.18913438
       32.66061      139.08969523        0.93364502
       32.76030      107.33470493        0.79797043
       32.85999       94.88440139        0.76002598
       32.95969      103.07921347        0.80152223
       33.05938      134.85784541        0.93888949
       33.15907      185.53127217        1.04901621
       33.25877      283.52688530        1.36091849
       33.35846      439.65999923        1.75319578
       33.45815      646.83674520        2.29222497
       33.55785      827.45818509        2.67741660
       33.65754     1059.10162262        2.92960309
       33.75723     1191.89053995        3.17189013
       33.85693     1115.58253902        3.04501031
       33.95662      966.09806155        2.84894414
       34.05631      789.07483312        2.48425101
       34.15601      598.64534034        2.05545063
       34.25570      446.58159304        1.73091417
       34.35539      314.23157698        1.45246228
       34.45509      219.94215368        1.26166895
       34.55478      150.56843146        0.97032391
       34.65447       96.96179526        0.74109461
       34.75417       73.44310224        0.65295211
       34.85386       62.83502887        0.59551648
       34.95355       56.69812187        0.58328053
       35.05325       53.90809686        0.58785388
       35.15294       51.85190515        0.54378532
       35.25263       49.78767178        0.54195333
       35.35233       47.78320464        0.54609393
       35.45202       46.04222292        0.55972269
       35.55171       46.60904184        0.54907406
       35.65141       44.86831629        0.52003529
       35.75110       43.58152964        0.50791061
       35.85079       42.72717169        0.50051766
       35.95049       40.51192561        0.49939060
       36.05018       40.97449558        0.49413427
       36.14987       40.07367777        0.46952463
       36.24957       39.93588814        0.48929821
       36.34926       38.35231695        0.48862264
       36.44895       37.93568552        0.49472693
       36.54865       38.17883838        0.47728644
       36.64834       37.35431242        0.46191931
       36.74803       37.32015177        0.46818745
       36.84773       36.81242138        0.46228130
       36.94742       36.08182047        0.49564899
       37.04711       36.22633213        0.43732353
       37.14681       35.28978193        0.44106797
       37.24650       35.78142526        0.45544900
       37.34620       35.48568326        0.46554548
       37.44589       35.30961121        0.49684911
       37.54558       35.26887656        0.45274374
       37.64528       34.10435026        0.44546199
       37.74497       33.95738645        0.43712325
       37.84466       34.26908481        0.46506205
       37.94436       34.02940931        0.47267098
       38.04405       34.55555521        0.43088377
       38.14374       35.41284693        0.44005706
       38.24344       34.61286886        0.44165281
       38.34313       34.57356452        0.46058827
       38.44282       35.32615943        0.50387959
       38.54252       35.40318518        0.45203832
       38.64221       36.41879512        0.45815884
       38.74190       38.20018988        0.47403594
       38.84160       43.39046123        0.50707814
       38.94129       47.60439408        0.55781511
       39.04098       55.53648052        0.54232287
       39.14068       63.28554540        0.60220258
       39.24037       66.54406874        0.61762441
       39.34006       66.35850708        0.64023503
       39.43976       60.93958820        0.66759491
       39.53945       55.17386062        0.56820697
       39.63914       46.03010089        0.51624668
       39.73884       39.65207939        0.48038237
       39.83853       36.24164227        0.45561067
       39.93822       34.26634309        0.46928738
       40.03792       33.88576951        0.42590579
       40.13761       34.28519702        0.42969531
       40.23730       34.88748742        0.44941974
       40.33700       34.65890065        0.46159635
       40.43669       34.38191690        0.48059742
       40.53638       35.45106823        0.45365352
       40.63608       34.33874304        0.45465196
       40.73577       35.89836136        0.46246109
       40.83546       36.14596418        0.46821269
       40.93516       35.15100814        0.47055132
       41.03485       34.52568122        0.43981674
       41.13454       35.45974026        0.44653653
       41.23424       34.38658286        0.45017067
       41.33393       34.61087056        0.47194731
       41.43362       34.74695500        0.48804763
       41.53332       33.20678622        0.44544164
       41.63301       34.24067066        0.46106900
       41.73270       33.63301838        0.44685741
       41.83240       34.07000748        0.46342592
       41.93209       35.21814854        0.46819856
       42.03179       35.83031038        0.43104852
       42.13148       36.53568741        0.45741622
       42.23117       39.66090834        0.47709979
       42.33087       44.07614470        0.53862723
       42.43056       55.06568786        0.59119758
       42.53025       65.99786047        0.62768036
       42.62995       90.60971395        0.74388946
       42.72964      125.07950759        0.88441261
       42.82933      163.85726917        1.03763374
       42.92903      197.72764951        1.10635479
       43.02872      216.99334500        1.10259709
       43.12841      200.75524518        1.07733348
       43.22811      164.68121548        1.01741547
       43.32780      128.47730257        0.93890762
       43.42749       93.64643219        0.78047071
       43.52719       66.54985658        0.63033003
       43.62688       48.69403326        0.53539338
       43.72657       40.91583602        0.50190679
       43.82627       37.40404144        0.50174465
       43.92596       35.14675330        0.43952346
       44.02565       33.00758236        0.42253003
       44.12535       32.85640131        0.43667746
       44.22504       32.43124170        0.45169606
       44.32473       31.48179143        0.46945059
       44.42443       31.31176804        0.44960108
       44.52412       31.04211940        0.43454486
       44.62381       32.05596547        0.44849283
       44.72351       30.93156317        0.42596582
       44.82320       30.98489555        0.47691700
       44.92289       31.24853145        0.39858843
       45.02259       31.47448422        0.40343427
       45.12228       30.90435691        0.41373304
       45.22197       29.32186094        0.41276161
       45.32167       30.00131338        0.46217688
       45.42136       30.11016601        0.42192948
       45.52105       29.84798922        0.41618311
       45.62075       28.88860409        0.41445439
       45.72044       28.67887876        0.41166049
       45.82013       29.19353238        0.45357278
       45.91983       30.18615784        0.39351230
       46.01952       29.70915465        0.40057559
       46.11921       29.15638812        0.39753155
       46.21891       28.65786387        0.41388487
       46.31860       28.81520852        0.44855595
       46.41829       29.05949431        0.41607625
       46.51799       28.49634393        0.41266997
       46.61768       28.75357458        0.41242069
       46.71738       28.45238378        0.42153135
       46.81707       28.81433128        0.44039556
       46.91676       28.96625407        0.38640634
       47.01646       29.26690168        0.39879102
       47.11615       28.65531862        0.40269023
       47.21584       29.28153986        0.41958352
       47.31554       29.51092838        0.45750754
       47.41523       28.82057417        0.42355550
       47.51492       29.11359720        0.42757242
       47.61462       28.61694149        0.42201921
       47.71431       28.28574496        0.42446468
       47.81400       28.81918179        0.44036733
       47.91370       28.32890028        0.38359534
       48.01339       28.55686746        0.38426117
       48.11308       27.74759297        0.39149438
       48.21278       27.48413992        0.40542674
       48.31247       27.25278640        0.41636411
       48.41216       27.47662086        0.39113210
       48.51186       27.12885170        0.40191331
       48.61155       27.73080354        0.40441230
       48.71124       27.25411922        0.40902014
       48.81094       27.56922558        0.40890600
       48.91063       27.15051914        0.36254853
       49.01032       27.96721860        0.37906282
       49.11002       26.95692462        0.38614985
       49.20971       27.15267482        0.40817441
       49.30940       27.40385073        0.42363232
       49.40910       27.62882712        0.40480292
       49.50879       27.58239106        0.41230811
       49.60848       28.26043802        0.42151001
       49.70818       27.73274929        0.43373579
       49.80787       26.95047692        0.41471716
       49.90756       27.96098146        0.38319038
       50.00726       27.32039858        0.38747361
       50.10695       27.67597228        0.39954963
       50.20664       28.99098412        0.42878028
       50.30634       28.64737950        0.44620712
       50.40603       28.13764874        0.41444366
       50.50572       29.22117174        0.42259614
       50.60542       29.45655383        0.42476558
       50.70511       28.27816076        0.42740901
       50.80480       29.09264689        0.42531113
       50.90450       29.48151480        0.38803403
       51.00419       30.17886635        0.39786524
       51.10388       31.42331513        0.41966040
       51.20358       33.46302586        0.46161048
       51.30327       36.79528879        0.48145441
       51.40297       40.94979904        0.48655719
       51.50266       50.90492879        0.54691651
       51.60235       64.20275987        0.62774184
       51.70205       80.43490926        0.75020794
       51.80174       97.44299122        0.76416095
       51.90143      118.01696444        0.78979748
       52.00113      130.59179617        0.83536603
       52.10082      131.82591608        0.86824262
       52.20051      120.48284452        0.90931457
       52.30021      108.69163137        0.82752255
       52.39990       90.81907786        0.73896890
       52.49959       72.18058744        0.66870975
       52.59929       58.76757737        0.61292989
       52.69898       48.85017570        0.61246174
       52.79867       40.37155702        0.46932908
       52.89837       35.17811128        0.42163824
       52.99806       31.36062697        0.40394301
       53.09775       30.24267765        0.40811710
       53.19745       30.37097551        0.46771448
       53.29714       28.97573495        0.40353733
       53.39683       27.89210559        0.41227977
       53.49653       29.15725883        0.42521349
       53.59622       28.79364745        0.42256261
       53.69591       27.57806673        0.45449280
       53.79561       27.96658401        0.38288300
       53.89530       28.47475031        0.38107741
       53.99499       27.31516928        0.37963409
       54.09469       26.62453421        0.39307898
       54.19438       27.43894685        0.43482689
       54.29407       27.26315496        0.40039653
       54.39377       27.01520026        0.40171106
       54.49346       27.28355872        0.40453257
       54.59315       27.33356395        0.41126938
       54.69285       26.85151583        0.43436779
       54.79254       27.47874842        0.37636751
       54.89223       26.97671738        0.36950923
       54.99193       26.44927458        0.37721983
       55.09162       27.45220202        0.40157716
       55.19131       27.32096366        0.43156718
       55.29101       27.34877611        0.40186958
       55.39070       26.16338938        0.40496330
       55.49039       26.83088878        0.40754356
       55.59009       27.11800162        0.42235773
       55.68978       27.17462143        0.43293702
       55.78948       27.44949309        0.37965762
       55.88917       28.79377125        0.38976910
       55.98886       30.17799776        0.40303550
       56.08856       32.50284174        0.43267515
       56.18825       36.23985259        0.49416085
       56.28794       38.90475122        0.46777099
       56.38764       41.77260489        0.50066975
       56.48733       43.49163953        0.51715213
       56.58702       46.53757701        0.55010644
       56.68672       46.33674078        0.56678687
       56.78641       47.45027835        0.49550392
       56.88610       46.09095602        0.49319438
       56.98580       44.77980674        0.48634730
       57.08549       44.63507470        0.51528757
       57.18518       41.45981482        0.51426110
       57.28488       37.68202369        0.45528276
       57.38457       34.35607059        0.46007219
       57.48426       31.42275710        0.44910565
       57.58396       29.58006932        0.44786501
       57.68365       28.04192695        0.44171661
       57.78334       27.19472402        0.38043408
       57.88304       26.31289297        0.37850746
       57.98273       27.19124045        0.39048142
       58.08242       26.89182652        0.41820433
       58.18212       27.65490529        0.43267340
       58.28181       27.02675208        0.40124748
       58.38150       27.35117923        0.42529225
       58.48120       27.21960600        0.43486590
       58.58089       28.93683041        0.45455512
       58.68058       30.57321548        0.45729360
       58.78028       33.84445953        0.41996123
       58.87997       39.53830296        0.44591973
       58.97966       48.67385058        0.51268603
       59.07936       59.16611741        0.60355352
       59.17905       66.86899498        0.65194128
       59.27874       75.22723297        0.65948142
       59.37844       79.85698357        0.70308466
       59.47813       78.93855650        0.72795784
       59.57782       75.22557018        0.74118265
       59.67752       69.70973924        0.66287061
       59.77721       58.90073383        0.55824026
       59.87690       46.67627694        0.49158145
       59.97660       36.91519047        0.45752337
       60.07629       32.45664250        0.46516858
       60.17598       30.04114868        0.42887790
       60.27568       27.22117657        0.39609910
       60.37537       26.72231146        0.39942771
       60.47507       26.35068779        0.41217784
       60.57476       25.57825656        0.44567493
       60.67445       25.37207005        0.37981210
       60.77415       25.76505635        0.36344750
       60.87384       24.96420691        0.35303981
       60.97353       25.38607258        0.37607675
       61.07323       24.92642841        0.42001838
       61.17292       25.05538116        0.36397648
       61.27261       25.34417044        0.37822272
       61.37231       25.03923751        0.38885564
       61.47200       24.00672549        0.39612659
       61.57169       23.87835013        0.44919689
       61.67139       24.20121502        0.36936044
       61.77108       24.43825325        0.36370806
       61.87077       24.44652618        0.36118143
       61.97047       23.71305886        0.36864004
       62.07016       24.22330853        0.42184341
       62.16985       24.03417764        0.36805267
       62.26955       23.88588185        0.38083334
       62.36924       23.56384702        0.39092006
       62.46893       24.39891682        0.41304991
       62.56863       24.01563638        0.46096290
       62.66832       24.43587351        0.37752812
       62.76801       24.63729051        0.36935558
       62.86771       24.61305376        0.36050822
       62.96740       24.31498320        0.36805011
       63.06709       24.43643524        0.41113025
       63.16679       23.21779203        0.35342705
       63.26648       24.70071552        0.37668347
       63.36617       24.47190944        0.39120496
       63.46587       24.15653954        0.40242831
       63.56556       24.68923799        0.43344807
       63.66525       23.34140876        0.35636238
       63.76495       25.38052834        0.36088994
       63.86464       24.04133422        0.34897122
       63.96433       24.24086297        0.36630812
       64.06403       24.87956740        0.39617464
       64.16372       24.33437161        0.36418367
       64.26341       25.28699076        0.38938724
       64.36311       24.82337985        0.39368157
       64.46280       25.56844854        0.42191126
       64.56249       24.60826009        0.42020317
       64.66219       24.75543311        0.36819463
       64.76188       25.47101408        0.36797598
       64.86157       24.72077362        0.36055345
       64.96127       25.44136809        0.38490641
       65.06096       25.48194154        0.41832242
       65.16066       26.83516259        0.38947905
       65.26035       26.62278875        0.39578469
       65.36004       26.93781901        0.41427794
       65.45974       27.58625635        0.43265148
       65.55943       26.76554259        0.44513013
       65.65912       28.15622604        0.39542974
       65.75882       29.78722421        0.40305787
       65.85851       31.55769919        0.41539197
       65.95820       34.21848224        0.45592913
       66.05790       36.68415921        0.48829718
       66.15759       39.19022298        0.47963313
       66.25728       43.08656092        0.51792320
       66.35698       48.50769744        0.57132452
       66.45667       54.43939786        0.64265063
       66.55636       62.41482984        0.68613290
       66.65606       72.82075601        0.65969588
       66.75575       92.84282905        0.73566472
       66.85544      131.28774030        0.87485572
       66.95514      186.62798113        1.09580438
       67.05483      250.18509356        1.29102636
       67.15452      338.77889125        1.45092825
       67.25422      437.65253536        1.75651290
       67.35391      524.34501651        2.04101491
       67.45360      593.71944416        2.32904829
       67.55330      650.83333132        2.37702918
       67.65299      712.84283740        2.26889591
       67.75268      741.35144204        2.29586310
       67.85238      721.01329606        2.27900332
       67.95207      667.71578774        2.32084796
       68.05176      600.40563598        2.05763068
       68.15146      496.79642450        1.81384146
       68.25115      403.14873744        1.70588213
       68.35084      339.16314257        1.62406593
       68.45054      292.79266190        1.65606819
       68.55023      238.67093164        1.27494153
       68.64992      176.63825480        1.00535651
       68.74962      122.96473379        0.83712624
       68.84931       85.43413829        0.70183669
       68.94900       67.41256130        0.70207691
       69.04870       50.96889645        0.51168660
       69.14839       41.89173412        0.48010201
       69.24808       36.38654157        0.48197361
       69.34778       33.20619733        0.47438961
       69.44747       31.97708522        0.53765944
       69.54716       29.86244660        0.40474300
       69.64686       28.47789066        0.38886647
       69.74655       27.84708080        0.38649229
       69.84625       27.56221534        0.39353560
       69.94594       26.68272767        0.43694607
       70.04563       26.06789371        0.35840540
       70.14533       26.43035604        0.37667479
       70.24502       26.47937743        0.40265216
       70.34471       27.41565285        0.43314818
       70.44441       28.08755852        0.51499817
       70.54410       28.23812188        0.40374647
       70.64379       29.60975669        0.41095606
       70.74349       30.13585291        0.42074690
       70.84318       30.97140002        0.44675899
       70.94287       31.66896123        0.49876770
       71.04257       31.80479698        0.41255860
       71.14226       31.29228313        0.42386664
       71.24195       30.78579958        0.44148069
       71.34165       29.56126648        0.45658055
       71.44134       28.64977462        0.50025021
       71.54103       27.37261627        0.39780427
       71.64073       26.98564134        0.38744571
       71.74042       26.15630252        0.37724676
       71.84011       26.81577999        0.39617529
       71.93981       25.25103949        0.41798280
       72.03950       24.86929914        0.34973791
       72.13919       24.99573729        0.36532909
       72.23889       24.79785308        0.37811665
       72.33858       23.54311292        0.41042023
       72.43827       23.51833251        0.45092130
       72.53797       23.18728703        0.36470437
       72.63766       23.44985739        0.35992879
       72.73735       23.99192416        0.35501473
       72.83705       23.83028912        0.37267172
       72.93674       24.86063275        0.40397993
       73.03643       25.20244147        0.35168459
       73.13613       26.74335831        0.38053090
       73.23582       27.81765620        0.40923691
       73.33551       29.55631701        0.46754181
       73.43521       29.72726112        0.50924225
       73.53490       30.98921585        0.41929173
       73.63459       31.39639052        0.41509133
       73.73429       33.98953543        0.42878194
       73.83398       35.44486996        0.46368838
       73.93367       35.34964563        0.48674975
       74.03337       35.68324535        0.43088301
       74.13306       36.36141637        0.45822711
       74.23275       35.96361826        0.47642303
       74.33245       34.97854799        0.51632649
       74.43214       34.15762154        0.52696473
       74.53184       33.18241276        0.44074614
       74.63153       32.18183855        0.43060596
       74.73122       29.85130564        0.41144619
       74.83092       26.83364384        0.41214385
       74.93061       26.72505651        0.41646931
       75.03030       24.05108781        0.35610150
       75.13000       22.90218470        0.35928734
       75.22969       22.29998626        0.36943987
       75.32938       21.47025502        0.39702819
       75.42908       21.94994545        0.40659585
       75.52877       21.03016133        0.34510192
       75.62846       21.02017950        0.34270838
       75.72816       20.55976633        0.33905919
       75.82785       20.70633120        0.36864527
       75.92754       20.67172555        0.34828527
       76.02724       21.21456170        0.32919968
       76.12693       21.19067050        0.34224216
       76.22662       21.14467106        0.36071188
       76.32632       21.57812753        0.41149266
       76.42601       20.56238953        0.37582427
       76.52570       21.57104876        0.35405656
       76.62540       20.75618556        0.34689086
       76.72509       20.74060709        0.34381707
       76.82478       21.69329466        0.40583662
       76.92448       21.21291596        0.31889589
       77.02417       20.50534296        0.32422023
       77.12386       20.69576161        0.34149240
       77.22356       20.42050791        0.35980054
       77.32325       19.49541516        0.42979290
       77.42294       20.39680819        0.35197469
       77.52264       20.52474063        0.34651219
       77.62233       20.70820777        0.34633760
       77.72202       20.71842373        0.34562293
       77.82172       20.66877202        0.40329467
       77.92141       20.76283323        0.30988092
       78.02110       20.70280454        0.33311025
       78.12080       20.45945968        0.35122468
       78.22049       20.75381712        0.37624079
       78.32018       20.23476262        0.43264109
       78.41988       20.56278860        0.34475846
       78.51957       19.84649872        0.34890191
       78.61926       20.61730284        0.35325035
       78.71896       20.20331741        0.35029934
       78.81865       20.38632029        0.39209219
       78.91834       20.64755245        0.30427968
       79.01804       20.17101534        0.33109384
       79.11773       20.80257032        0.35236594
       79.21743       21.22572582        0.38050895
       79.31712       20.94891999        0.42562883
       79.41681       21.69932122        0.34936755
       79.51651       22.03950523        0.35836389
       79.61620       22.99978318        0.36647372
       79.71589       23.81263722        0.38632731
       79.81559       25.01157377        0.41848506
       79.91528       27.01315330        0.36970527
       80.01497       29.97491190        0.40601415
       80.11467       31.22743117        0.43177133
       80.21436       31.71216249        0.46432760
       80.31405       33.13840000        0.56368629
       80.41375       33.54290050        0.43398652
       80.51344       33.92608863        0.43442439
       80.61313       33.34679453        0.44223082
       80.71283       32.91248602        0.45654815
       80.81252       31.90022922        0.50638174
       80.91221       32.22861827        0.37979488
       81.01191       28.56936608        0.38298443
       81.11160       27.43086753        0.40415882
       81.21129       24.96651706        0.41617797
       81.31099       23.36835230        0.44828166
       81.41068       22.19825280        0.34016171
       81.51037       21.17930057        0.34076051
       81.61007       21.53076434        0.36294177
       81.70976       21.33212397        0.37442453
       81.80945       20.64818864        0.39172954
       81.90915       20.45426981        0.29699475
       82.00884       19.58277627        0.31096149
       82.10853       20.11851546        0.35122253
       82.20823       20.40452353        0.39129457
       82.30792       19.43012050        0.39916825
       82.40761       20.80894069        0.33769068
       82.50731       20.51116331        0.33917404
       82.60700       20.56963311        0.36375077
       82.70669       20.94676410        0.39975494
       82.80639       20.67367636        0.37846754
       82.90608       21.02341179        0.30931178
       83.00577       21.16223862        0.32826492
       83.10547       21.11331290        0.38503740
       83.20516       20.92640197        0.42945887
       83.30485       21.38303009        0.41485568
       83.40455       21.23001000        0.34494103
       83.50424       21.21972638        0.33473833
       83.60393       21.55809077        0.37151236
       83.70363       21.80806102        0.42001768
       83.80332       21.86468841        0.36802018
       83.90302       23.10597308        0.31630916
       84.00271       23.18354216        0.32977709
       84.10240       24.04731156        0.40665777
       84.20210       24.52578281        0.49891010
       84.30179       24.70515133        0.40726239
       84.40148       25.22556654        0.36149350
       84.50118       25.09591303        0.35408924
       84.60087       25.07219123        0.39888309
       84.70056       24.54585668        0.51326264
       84.80026       24.53700289        0.35853589
       84.89995       24.29315640        0.32200767
       84.99964       23.73899047        0.33130035
       85.09934       22.22930578        0.37767017
       85.19903       22.30987295        0.64788814
       85.29872       21.43925546        0.33408779
       85.39842       20.98963933        0.33594902
       85.49811       20.58403862        0.32318570
       85.59780       19.96760095        0.35652274
       85.69750       19.66469901        0.63637589
       85.79719       20.60489103        0.31116848
       85.89688       20.25444881        0.30128845
       85.99658       20.43138832        0.30977475
       86.09627       20.07955872        0.35190687
       86.19596       20.95604307        0.69387276
       86.29566       20.04115834        0.31933478
       86.39535       20.10206031        0.32320950
       86.49504       19.94594739        0.31685070
       86.59474       20.23781710        0.34505026
       86.69443       20.61525383        0.72969335
       86.79412       20.31412001        0.30147126
       86.89382       20.42577353        0.29444895
       86.99351       20.97893852        0.30987077
       87.09320       22.76207636        0.35807353
       87.19290       19.80002293        0.79179020
       87.29259       22.12217656        0.33711590
       87.39228       22.93014162        0.35160102
       87.49198       22.58911155        0.34189614
       87.59167       22.67777024        0.34671801
       87.69136       23.19079522        1.04890178
       87.79106       22.99648135        0.32389520
       87.89075       22.52284263        0.31793016
       87.99044       21.56482973        0.32194196
       88.09014       21.49513246        0.34136063
       88.18983       22.79848745        1.87159401
       88.28953       22.38592005        0.35492776
       88.38922       21.24304650        0.34900572
       88.48891       21.12870517        0.33236703
       88.58861       20.87152357        0.31885616
       88.68830       21.48750945        2.53536825
       88.78799       20.47040560        0.30464322
       88.88769       19.75671718        0.29080225
       88.98738       19.57128774        0.30211373
       89.08707       20.38172209        0.31914390
       89.18677       20.10385788        2.58261694
       89.28646       20.09163469        0.32101876
       89.38615       19.80071081        0.31981263
       89.48585       20.17995018        0.31677956
       89.58554       19.70020959        0.30533528
       89.68523       20.40316080        2.51179608
       89.78493       19.53870215        0.29368051
       89.88462       19.37230972        0.28987346
       89.98431       20.02640157        0.30422164
       90.08401       19.90956648        0.31201465
       90.18370       21.91850827        2.71108163
       90.28339       20.34796507        0.32176686
       90.38309       19.54105173        0.32014706
       90.48278       20.19215814        0.31819260
       90.58247       20.03116230        0.31180362
       90.68217       19.90891186        2.45403230
       90.78186       21.25840026        0.31164642
       90.88155       21.21456554        0.30356000
       90.98125       20.85532923        0.30933321
       91.08094       20.70313941        0.31805345
       91.18063       19.66878402        2.47090273
       91.28033       21.36956943        0.33208369
       91.38002       21.71282116        0.34195291
       91.47971       21.64874816        0.33319018
       91.57941       23.00317393        0.33715617
       91.67910       21.98074491        2.49622201
       91.77879       23.76944847        0.32831162
       91.87849       25.12731563        0.33066296
       91.97818       27.51410088        0.35945600
       92.07787       30.61200144        0.39355035
       92.17757       34.97935136        3.19756588
       92.27726       35.54696103        0.43719980
       92.37695       40.18771023        0.48036182
       92.47665       48.06580938        0.50555119
       92.57634       60.04558507        0.54500414
       92.67603       73.16667335        3.94156155
       92.77573       80.40516172        0.60994294
       92.87542      108.04308976        0.69601668
       92.97512      137.28615621        0.82128935
       93.07481      162.89387331        1.02484920
       93.17450      171.25264245        1.98524297
       93.27420      189.39668390        1.03560666
       93.37389      210.36611597        1.06597070
       93.47358      231.54086790        1.12888685
       93.57328      251.48319703        1.36686288
       93.67297      257.45232515        1.86687903
       93.77266      273.72622970        1.19606246
       93.87236      282.69847586        1.15557216
       93.97205      298.65553411        1.25433987
       94.07174      306.28723649        1.66435959
       94.17144      306.27281287        1.90165459
       94.27113      295.80162860        1.37954259
       94.37082      281.83146128        1.30139177
       94.47052      264.83348713        1.20764304
       94.57021      247.27090519        1.53410800
       94.66990      241.04936109        1.52657089
       94.76960      224.83438506        1.13729395
       94.86929      210.43616919        1.00822692
       94.96898      194.25271683        0.98016763
       95.06868      174.47878495        1.06180617
       95.16837      162.47614977        1.39536422
       95.26806      152.84523415        1.04326492
       95.36776      138.41732344        0.89699169
       95.46745      124.53546111        0.81475793
       95.56714      108.66516276        0.86987595
       95.66684      101.43313595        0.94952489
       95.76653       92.21169626        0.75097467
       95.86622       74.73354777        0.57347706
       95.96592       57.43342689        0.51647662
       96.06561       48.20768848        0.60504150
       96.16530       43.85869508        0.61202419
       96.26500       39.93965106        0.52446310
       96.36469       37.96094715        0.45582101
       96.46438       36.20762245        0.43293499
       96.56408       34.80736578        0.52996311
       96.66377       33.35741126        0.50377684
       96.76346       31.66598812        0.43712675
       96.86316       32.32083813        0.38111526
       96.96285       32.15586804        0.39214367
       97.06254       32.56859405        0.53191265
       97.16224       32.22167258        0.50627187
       97.26193       32.80087377        0.47776220
       97.36162       33.76122366        0.45369254
       97.46132       33.88212187        0.42222308
       97.56101       32.35196550        0.52085946
       97.66071       32.04522655        0.46382178
       97.76040       31.31554550        0.41671812
       97.86009       30.92247437        0.37320211
       97.95979       29.91871977        0.37300322
       98.05948       29.61414543        0.51895481
       98.15917       29.80940073        0.46499768
       98.25887       28.53815334        0.43706379
       98.35856       28.10111668        0.40763476
       98.45825       27.16925832        0.37257909
       98.55795       26.30268066        0.47822153
       98.65764       25.80077102        0.40581663
       98.75733       24.69685700        0.36907932
       98.85703       24.03585574        0.33936052
       98.95672       23.66192459        0.33792661
       99.05641       23.49008215        0.46948974
       99.15611       23.00233219        0.39847183
       99.25580       23.37177738        0.38741212
       99.35549       22.87085155        0.36410636
       99.45519       22.52231649        0.33638425
       99.55488       23.20576919        0.45582573
       99.65457       22.24363921        0.36748967
       99.75427       23.18115560        0.35137654
       99.85396       23.17242306        0.33846324
       99.95365       23.14800056        0.33157464
      100.05335       22.30822380        0.46128742
      100.15304       21.96532590        0.38439726
      100.25273       22.25452881        0.38243056
      100.35243       22.15563385        0.37875616
      100.45212       21.67921849        0.34170232
      100.55181       22.18955039        0.45508532
      100.65151       21.91222369        0.36980106
      100.75120       21.40351853        0.34023565
      100.85089       21.15430910        0.32252717
      100.95059       21.38897212        0.31504636
      101.05028       20.71294326        0.44220511
      101.14997       20.15558477        0.35936896
      101.24967       20.15476766        0.35409817
      101.34936       20.23504123        0.35634588
      101.44905       20.61343972        0.34114368
      101.54875       20.33206488        0.42573529
      101.64844       20.14872098        0.34480546
      101.74813       20.48183996        0.32605466
      101.84783       19.35865774        0.30716815
      101.94752       19.70121851        0.32646045
      102.04721       19.36353808        0.38890961
      102.14691       19.40793624        0.35049330
      102.24660       20.10113305        0.35381712
      102.34630       20.14156044        0.35685349
      102.44599       19.60221133        0.35712676
      102.54568       19.57836729        0.37360290
      102.64538       19.35748483        0.33119827
      102.74507       19.32631188        0.31431263
      102.84476       19.38618987        0.30836716
      102.94446       18.74997507        0.34390595
      103.04415       20.35681340        0.38288326
      103.14384       19.77248044        0.35356710
      103.24354       19.20439911        0.34358246
      103.34323       19.82083889        0.34563528
      103.44292       19.58649741        0.37175840
      103.54262       19.75852067        0.36243504
      103.64231       19.65868473        0.32821278
      103.74200       19.09550039        0.30796158
      103.84170       18.94156885        0.30071899
      103.94139       19.67159244        0.37225896
      104.04108       20.16117312        0.36502360
      104.14078       18.94995182        0.34269621
      104.24047       19.10716523        0.34323532
      104.34016       19.12915079        0.34490488
      104.43986       19.17257391        0.39323970
      104.53955       18.98405340        0.35277226
      104.63924       18.70387693        0.32833371
      104.73894       19.04823360        0.31846635
      104.83863       19.46043381        0.31248342
      104.93832       18.98920930        0.37374724
      105.03802       19.33700332        0.35403079
      105.13771       19.24415461        0.33980004
      105.23740       19.67847545        0.34232880
      105.33710       19.27290725        0.33950481
      105.43679       18.92957691        0.39167449
      105.53648       19.67981745        0.35933707
      105.63618       19.35845410        0.32778903
      105.73587       19.79528549        0.31712305
      105.83556       20.01983721        0.31009414
      105.93526       19.87585580        0.39080306
      106.03495       20.12353183        0.35612842
      106.13464       20.31104570        0.34532508
      106.23434       19.71534078        0.34216739
      106.33403       18.96787524        0.33919189
      106.43372       20.15472479        0.41829719
      106.53342       20.79378747        0.37018823
      106.63311       19.61077585        0.32679699
      106.73280       19.68306825        0.31094598
      106.83250       19.57864374        0.30476145
      106.93219       19.73732522        0.39600331
      107.03189       19.86954397        0.35210586
      107.13158       19.90896114        0.34137488
      107.23127       19.12749271        0.34077248
      107.33097       19.23127481        0.34186219
      107.43066       19.29542181        0.41256148
      107.53035       19.31049364        0.35473652
      107.63005       19.21238265        0.32195660
      107.72974       19.06114679        0.30724213
      107.82943       19.03207127        0.30267880
      107.92913       19.90031538        0.40919345
      108.02882       19.29030200        0.35314075
      108.12851       20.07054545        0.34438563
      108.22821       19.61760072        0.33563235
      108.32790       19.16594445        0.32744359
      108.42759       19.16612669        0.41519134
      108.52729       19.62988686        0.35631429
      108.62698       19.83823162        0.32383103
      108.72667       20.44828906        0.31516737
      108.82637       20.69313408        0.32484513
      108.92606       20.76306710        0.41422171
      109.02575       21.72552181        0.37076455
      109.12545       21.34424984        0.35786111
      109.22514       21.69701179        0.35988635
      109.32483       22.55403842        0.39909136
      109.42453       23.80283853        0.43232824
      109.52422       22.91601278        0.38260091
      109.62391       23.68861691        0.36962381
      109.72361       24.60606610        0.36078366
      109.82330       25.13298239        0.34309494
      109.92299       24.92763078        0.44434392
      110.02269       25.60084431        0.39269430
      110.12238       26.34708049        0.39551583
      110.22207       26.03190306        0.38972884
      110.32177       25.33928606        0.39191116
      110.42146       25.69896623        0.47836057
      110.52115       26.89610320        0.41647728
      110.62085       27.35001373        0.39748891
      110.72054       26.92669945        0.37027369
      110.82023       26.86831066        0.38067790
      110.91993       27.03307873        0.44363961
      111.01962       25.63916676        0.39906680
      111.11931       26.15594479        0.40499902
      111.21901       25.57460448        0.39241649
      111.31870       26.35852210        0.43154302
      111.41839       24.91862058        0.43669300
      111.51809       25.03497821        0.39933763
      111.61778       24.26612054        0.37012502
      111.71748       23.88876200        0.34034441
      111.81717       23.07768841        0.36200547
      111.91686       22.81583705        0.37830754
      112.01656       22.17370960        0.36408364
      112.11625       22.94866716        0.37274733
      112.21594       23.05572941        0.37286338
      112.31564       22.86785383        0.41158749
      112.41533       22.49979389        0.40084012
      112.51502       21.99109498        0.36426047
      112.61472       21.33859141        0.34185066
      112.71441       21.60281407        0.32392439
      112.81410       21.19589401        0.35864952
      112.91380       21.27959511        0.36564383
      113.01349       20.87488099        0.35521829
      113.11318       21.10960797        0.35749240
      113.21288       20.69581651        0.35337018
      113.31257       20.35785897        0.38725666
      113.41226       20.17313436        0.36558415
      113.51196       20.77619191        0.34886541
      113.61165       19.40620317        0.32530518
      113.71134       19.74062628        0.31248770
      113.81104       19.37169387        0.35466660
      113.91073       20.04720393        0.35179159
      114.01042       19.96817004        0.34813166
      114.11012       19.48915910        0.34332238
      114.20981       19.19254691        0.34213201
      114.30950       19.45682891        0.39036266
      114.40920       18.66838744        0.35291630
      114.50889       19.18362010        0.33492703
      114.60858       19.32916712        0.32604804
      114.70828       19.36386181        0.31531491
      114.80797       19.43869203        0.36007886
      114.90766       19.10955443        0.33599924
      115.00736       19.21249515        0.33463954
      115.10705       19.00905906        0.33390615
      115.20674       18.88515598        0.33800371
      115.30644       19.10224885        0.38941841
      115.40613       19.11986471        0.35334050
      115.50582       18.94112881        0.33272389
      115.60552       19.08168031        0.32335777
      115.70521       19.00970619        0.31068663
      115.80490       19.49226507        0.36610738
      115.90460       18.88214768        0.32591223
      116.00429       19.34715630        0.33381593
      116.10399       19.51684194        0.33744033
      116.20368       19.34935264        0.34342942
      116.30337       18.56622509        0.40178486
      116.40307       19.45831383        0.35964616
      116.50276       19.70461959        0.34284988
      116.60245       19.57518312        0.32850581
      116.70215       19.07795114        0.31245400
      116.80184       20.23640031        0.38184572
      116.90153       19.17014810        0.33445759
      117.00123       19.70614523        0.33612946
      117.10092       19.43756273        0.34257839
      117.20061       20.10229193        0.35373970
      117.30031       20.27681906        0.42718293
      117.40000       19.64273371        0.35215850
      117.49969       19.35458667        0.33178678
      117.59939       20.47464575        0.32570268
      117.69908       20.53205982        0.31574299
      117.79877       21.06570477        0.39222485
      117.89847       21.45198265        0.34370137
      117.99816       21.76748424        0.35128459
      118.09785       23.01612154        0.37008379
      118.19755       23.72641834        0.39258635
      118.29724       24.41739410        0.43412842
      118.39693       25.51286213        0.40487807
      118.49663       27.83420864        0.39793312
      118.59632       29.22648945        0.39252581
      118.69601       31.74406917        0.42773462
      118.79571       32.94699065        0.47151169
      118.89540       37.12545479        0.46825496
      118.99509       41.03833018        0.49276530
      119.09479       45.33647304        0.52235222
      119.19448       50.39633552        0.60035794
      119.29417       55.73370942        0.65716571
      119.39387       63.25875548        0.64533931
      119.49356       72.91195603        0.65284475
      119.59325       83.79442333        0.68240844
      119.69295       96.66372692        0.77726907
      119.79264      109.22768213        0.83884204
      119.89233      121.27026431        0.85843153
      119.99203      136.00681919        0.89008281
      120.09172      148.18230157        0.95000782
      120.19141      159.18785771        1.10699030
      120.29111      168.64581722        1.12767867
      120.39080      178.16253923        1.10921518
      120.49049      187.28902735        1.06269479
      120.59019      200.95856779        1.07234274
      120.68988      209.77560412        1.18260698
      120.78958      215.59894036        1.17191798
      120.88927      228.12059877        1.18824862
      120.98896      231.23025491        1.18441358
      121.08866      239.20432508        1.21159468
      121.18835      246.69485116        1.41564793
      121.28804      250.16645070        1.39036620
      121.38774      256.28444173        1.33632687
      121.48743      257.76394288        1.26912840
      121.58712      263.66245943        1.22502723
      121.68682      259.96340714        1.33875913
      121.78651      257.62632667        1.27114944
      121.88620      255.00415160        1.24839460
      121.98590      248.48317203        1.23844904
      122.08559      243.88514874        1.24981437
      122.18528      236.86444519        1.43621652
      122.28498      228.01844073        1.32107707
      122.38467      215.10581811        1.22444827
      122.48436      201.85657785        1.11870226
      122.58406      188.54755393        1.02041604
      122.68375      172.58086484        1.10212210
      122.78344      162.78168529        1.00312390
      122.88314      149.69572892        0.95281799
      122.98283      137.05298691        0.92914907
      123.08252      128.71037153        0.89586429
      123.18222      117.81600927        0.99598250
      123.28191      109.85311863        0.87011410
      123.38160      101.01470230        0.80412050
      123.48130       92.10123885        0.73775523
      123.58099       83.55210776        0.65518904
      123.68068       75.87232860        0.71112069
      123.78038       69.93671189        0.61572181
      123.88007       63.36325205        0.57464310
      123.97976       56.95106783        0.55288979
      124.07946       52.01284394        0.52179260
      124.17915       48.19359753        0.56510382
      124.27884       44.75225917        0.48719358
      124.37854       40.35076644        0.43474481
      124.47823       37.28600767        0.40875138
      124.57792       32.92034656        0.40889008
