        5.04553       58.81284697        1.21587170
        5.14523       56.18685028        1.13646672
        5.24492       57.26364255        1.13175463
        5.34461       59.18910328        1.05970231
        5.44431       56.13244537        1.12800983
        5.54400       56.82821905        0.94615815
        5.64369       57.52332114        0.95676950
        5.74339       57.35251432        0.85623255
        5.84308       54.75257370        0.84627490
        5.94277       56.54132149        0.85808680
        6.04247       56.94677864        0.83540225
        6.14216       56.21522039        0.76397404
        6.24185       54.80220462        0.77708815
        6.34155       55.95159513        0.74932639
        6.44124       56.63380134        0.79486194
        6.54093       56.56713582        0.75321269
        6.64063       56.42245265        0.71299930
        6.74032       57.74877450        0.72154588
        6.84001       56.15254173        0.70722200
        6.93971       54.72642246        0.70401936
        7.03940       56.69813057        0.66781618
        7.13909       56.82748224        0.66562023
        7.23879       56.95604174        0.65696989
        7.33848       57.88519472        0.67265553
        7.43817       57.39390271        0.65559062
        7.53787       57.28645688        0.64649222
        7.63756       59.19705949        0.62701641
        7.73725       56.90664826        0.63887555
        7.83695       58.50148222        0.62687874
        7.93664       58.30065018        0.65281365
        8.03633       58.53343278        0.58898879
        8.13603       59.83981551        0.58873245
        8.23572       59.63848265        0.59927325
        8.33541       60.33386634        0.59685352
        8.43511       59.91186778        0.62924325
        8.53480       61.04769435        0.58868938
        8.63449       61.76597799        0.58675834
        8.73419       61.92694972        0.57362789
        8.83388       61.73257083        0.57593246
        8.93357       62.45438293        0.57808590
        9.03327       63.14657553        0.56619935
        9.13296       63.77158935        0.56612790
        9.23265       62.66764805        0.56803120
        9.33235       63.61803557        0.58924672
        9.43204       63.58956319        0.58682560
        9.53174       65.00822093        0.57032880
        9.63143       66.43729241        0.59607730
        9.73112       64.87616728        0.58891564
        9.83082       65.25225278        0.61630259
        9.93051       66.06583648        0.61101151
       10.03020       67.36340026        0.59656143
       10.12990       67.51547947        0.58296861
       10.22959       67.63295636        0.60717454
       10.32928       68.36758432        0.63609159
       10.42898       69.09024225        0.63129785
       10.52867       70.90642793        0.61880156
       10.62836       70.10221869        0.61503878
       10.72806       71.96711792        0.63116147
       10.82775       71.64038961        0.62812548
       10.92744       73.09338995        0.64408953
       11.02714       73.77506031        0.61817262
       11.12683       74.92711640        0.64408287
       11.22652       76.71319613        0.65959469
       11.32622       76.24235428        0.67486061
       11.42591       76.47059817        0.65220250
       11.52560       78.60587149        0.65409803
       11.62530       79.03342989        0.66177162
       11.72499       80.38969349        0.67968614
       11.82468       81.33940883        0.70230777
       11.92438       81.44651764        0.66777262
       12.02407       82.07553968        0.66291597
       12.12376       83.60677162        0.67330799
       12.22346       83.42887000        0.71365319
       12.32315       84.16321472        0.72388662
       12.42284       87.05419065        0.70236687
       12.52254       88.30828469        0.70197388
       12.62223       88.15756196        0.72078360
       12.72192       90.62869031        0.71037609
       12.82162       90.90243534        0.76860543
       12.92131       91.96842377        0.70990337
       13.02100       94.06824695        0.70984427
       13.12070       94.01444705        0.72133214
       13.22039       96.93954849        0.75436166
       13.32008       96.39258708        0.78075243
       13.41978       99.00789197        0.75260747
       13.51947       99.41309539        0.76820541
       13.61916       99.39116246        0.74161070
       13.71886      103.35854339        0.79371852
       13.81855      104.74344147        0.81130218
       13.91824      106.12028997        0.76876687
       14.01794      109.26293224        0.76356932
       14.11763      110.91571378        0.79701120
       14.21733      111.42405344        0.80286272
       14.31702      113.28980663        0.85059569
       14.41671      113.39432596        0.82538201
       14.51641      116.31878340        0.81343250
       14.61610      118.46826616        0.82532246
       14.71579      119.36958522        0.84373302
       14.81549      122.17568745        0.89585267
       14.91518      123.75940775        0.82465554
       15.01487      125.61386800        0.84616472
       15.11457      128.81577973        0.86767367
       15.21426      130.91800044        0.90159074
       15.31395      133.95802138        0.93651188
       15.41365      134.43829172        0.90789438
       15.51334      135.10578030        0.88281088
       15.61303      137.75876218        0.91838590
       15.71273      140.24723630        0.91074849
       15.81242      141.80831265        0.96061248
       15.91211      145.51904116        0.93938198
       16.01181      144.83848420        0.90058485
       16.11150      147.39209033        0.93625115
       16.21119      150.62781531        0.97428363
       16.31089      149.25942830        0.97098725
       16.41058      149.47992625        0.95173997
       16.51027      150.98848403        0.97385151
       16.60997      154.28073649        0.95031052
       16.70966      152.28229151        0.96692210
       16.80935      149.86283696        0.97024154
       16.90905      149.77745397        0.94084770
       17.00874      149.83489341        0.90147992
       17.10843      146.93877236        0.94567023
       17.20813      144.20700513        0.94302441
       17.30782      144.23518708        0.95079521
       17.40751      143.10308844        0.94613291
       17.50721      140.00562688        0.90599056
       17.60690      136.45173993        0.92342156
       17.70659      135.92662204        0.92587922
       17.80629      131.95706159        0.92233566
       17.90598      130.03667659        0.85633992
       18.00567      127.76357364        0.86376919
       18.10537      125.65170175        0.83302523
       18.20506      122.60334854        0.90085244
       18.30475      121.67322801        0.85590493
       18.40445      118.18183166        0.82023461
       18.50414      116.10430661        0.83928732
       18.60383      114.05976578        0.81825046
       18.70353      113.03265116        0.86152128
       18.80322      109.72150238        0.79803907
       18.90292      107.28536003        0.78083799
       19.00261      105.92003418        0.75206992
       19.10230      104.51019428        0.79597198
       19.20200      102.49555709        0.80632078
       19.30169      101.06859789        0.77173036
       19.40138      100.61101928        0.76286852
       19.50108       97.98590976        0.76958414
       19.60077       96.13107121        0.75437905
       19.70046       95.03815002        0.78594839
       19.80016       92.71008061        0.73472381
       19.89985       92.12470963        0.71090613
       19.99954       90.58890849        0.71176505
       20.09924       90.42644801        0.71981791
       20.19893       87.87759018        0.75819483
       20.29862       87.03078383        0.71459555
       20.39832       86.20530013        0.73382017
       20.49801       83.85639149        0.70958845
       20.59770       82.32552910        0.71720878
       20.69740       82.92474607        0.74543328
       20.79709       80.72229359        0.70005265
       20.89678       80.35593815        0.68077929
       20.99648       79.78765934        0.68940182
       21.09617       78.37416616        0.71317204
       21.19586       78.19754361        0.71201046
       21.29556       77.44537593        0.69230055
       21.39525       76.75781024        0.69016281
       21.49494       75.52012360        0.67243971
       21.59464       73.98147004        0.67979278
       21.69433       74.35316061        0.70965028
       21.79402       74.11245633        0.64677310
       21.89372       73.42630629        0.63060926
       21.99341       72.66607779        0.65382272
       22.09310       71.61011800        0.65168123
       22.19280       72.41442169        0.69509235
       22.29249       70.75906909        0.64095533
       22.39218       70.22731809        0.65248751
       22.49188       69.83440557        0.65138633
       22.59157       68.42815129        0.65295663
       22.69126       68.48959242        0.68649401
       22.79096       67.33235403        0.61483637
       22.89065       69.44587054        0.61038797
       22.99034       68.58433531        0.62317864
       23.09004       67.18669993        0.64400850
       23.18973       66.75152124        0.64073231
       23.28942       66.02167696        0.62777718
       23.38912       66.25913176        0.63526922
       23.48881       66.11814782        0.63777602
       23.58851       66.63777024        0.64848838
       23.68820       65.37046126        0.67620589
       23.78789       65.31501734        0.60181236
       23.88759       65.51204839        0.61134363
       23.98728       63.45522779        0.61373100
       24.08697       63.27736589        0.60091800
       24.18667       64.21345277        0.64932250
       24.28636       63.58666847        0.61285679
       24.38605       65.58677189        0.63621595
       24.48575       64.22161524        0.62842888
       24.58544       63.13148459        0.64187317
       24.68513       63.88296809        0.64593845
       24.78483       62.91849745        0.59065822
       24.88452       63.40532336        0.59158132
       24.98421       61.06565037        0.60020159
       25.08391       62.28239397        0.61891066
       25.18360       62.67152280        0.63430236
       25.28329       61.98385066        0.60798169
       25.38299       62.14604375        0.60695243
       25.48268       62.93197401        0.61450711
       25.58237       62.16897242        0.63537289
       25.68207       62.75709406        0.62559505
       25.78176       62.86846980        0.58858174
       25.88145       62.51044915        0.60249487
       25.98115       62.75813487        0.61019840
       26.08084       62.33844711        0.62312932
       26.18053       62.99860805        0.64367188
       26.28023       62.20991317        0.60521806
       26.37992       62.20104536        0.60557176
       26.47961       63.31915243        0.63121207
       26.57931       62.23230987        0.65287689
       26.67900       63.29433347        0.61629176
       26.77869       62.54857522        0.60821072
       26.87839       62.34881334        0.60066582
       26.97808       62.47003179        0.59742142
       27.07777       63.15056151        0.64723513
       27.17747       62.77427371        0.61601422
       27.27716       63.44437954        0.60373611
       27.37685       63.49883022        0.62761692
       27.47655       63.80688849        0.61938320
       27.57624       63.99570948        0.64808057
       27.67593       64.47662366        0.63713073
       27.77563       64.10131225        0.60814980
       27.87532       63.81514936        0.59665910
       27.97501       63.79406690        0.60853285
       28.07471       65.65375585        0.65450728
       28.17440       63.99879476        0.61788928
       28.27410       64.84526388        0.62076678
       28.37379       65.28636823        0.63789351
       28.47348       65.94829385        0.63703696
       28.57318       65.80700540        0.68933848
       28.67287       65.70465183        0.61411213
       28.77256       65.26138281        0.60073105
       28.87226       65.66759327        0.61746497
       28.97195       66.44561994        0.62356470
       29.07164       66.71326009        0.68016026
       29.17134       66.08030724        0.61659133
       29.27103       66.74645454        0.62978081
       29.37072       67.65514972        0.66028917
       29.47042       66.64735810        0.64577959
       29.57011       67.93777141        0.69017829
       29.66980       67.86946060        0.62901746
       29.76950       68.04008788        0.62948390
       29.86919       68.52194660        0.61913070
       29.96888       68.37669370        0.64672726
       30.06858       68.63324683        0.66904721
       30.16827       68.54392806        0.63251411
       30.26796       69.30607333        0.63683037
       30.36766       69.05802233        0.64861966
       30.46735       70.34012583        0.66042400
       30.56704       70.30123151        0.69468993
       30.66674       70.15281741        0.64779746
       30.76643       71.02130706        0.63649418
       30.86612       70.92190506        0.64916658
       30.96582       71.66016143        0.65737210
       31.06551       71.36304810        0.68791905
       31.16520       72.04115641        0.64991107
       31.26490       74.18917837        0.65455640
       31.36459       73.14299353        0.65898200
       31.46428       74.48086961        0.69321923
       31.56398       73.54011892        0.69653994
       31.66367       72.49282704        0.64625622
       31.76336       74.98090774        0.65789108
       31.86306       75.83048503        0.65496992
       31.96275       77.68668545        0.67754289
       32.06244       77.26735652        0.69907223
       32.16214       77.56194058        0.65794822
       32.26183       78.22787344        0.67711473
       32.36152       79.37908882        0.70726221
       32.46122       81.99449613        0.72979847
       32.56091       82.64223977        0.74715000
       32.66060       84.60914194        0.71978008
       32.76030       90.61815074        0.73036100
       32.85999       98.82524955        0.77594137
       32.95969      112.34198973        0.83799103
       33.05938      140.74628376        0.95990370
       33.15907      188.99190829        1.05903856
       33.25877      274.44591065        1.33607227
       33.35846      430.29544456        1.73082177
       33.45815      637.95882940        2.27222850
       33.55785      848.95852224        2.72030142
       33.65754     1154.92993521        3.10132681
       33.75723     1406.18950332        3.54763710
       33.85693     1372.70867586        3.50064826
       33.95662     1139.69750987        3.17390763
       34.05631      855.27092168        2.61282230
       34.15601      522.77073337        1.89499985
       34.25570      314.53871084        1.41707541
       34.35539      198.58773980        1.12862345
       34.45509      132.69278458        0.96262342
       34.55478      102.36436744        0.79189415
       34.65447       86.24080812        0.69707032
       34.75417       80.02699389        0.68222608
       34.85386       77.18312499        0.66170342
       34.95355       76.26162172        0.67893884
       35.05325       71.70746348        0.68022268
       35.15294       70.85300718        0.63791237
       35.25263       68.09268568        0.63595462
       35.35233       67.86623616        0.65327224
       35.45202       65.24317887        0.66868408
       35.55171       64.16834266        0.64634636
       35.65141       63.80558586        0.62234003
       35.75110       62.10348548        0.60840465
       35.85079       61.22307784        0.60120359
       35.95049       58.46643021        0.60193692
       36.05018       59.79184986        0.59901290
       36.14987       58.64846821        0.56998394
       36.24957       57.87100695        0.59097589
       36.34926       56.48370742        0.59498435
       36.44895       56.24462880        0.60445619
       36.54865       54.39618500        0.57140428
       36.64834       54.96958359        0.56218165
       36.74803       54.52246881        0.56769859
       36.84773       55.18687122        0.56795816
       36.94742       53.35305932        0.60464258
       37.04711       52.15711182        0.52627634
       37.14681       53.01395017        0.54238417
       37.24650       52.15573818        0.55153022
       37.34619       52.03522062        0.56546737
       37.44589       51.62931048        0.60259948
       37.54558       50.86456732        0.54525624
       37.64528       50.97032763        0.54628287
       37.74497       51.96632971        0.54256975
       37.84466       50.81441925        0.56803720
       37.94436       51.70800896        0.58457210
       38.04405       50.67603555        0.52334399
       38.14374       50.29299366        0.52583948
       38.24344       50.22910712        0.53355409
       38.34313       50.70694236        0.55944896
       38.44282       49.64154014        0.59885319
       38.54252       51.09374248        0.54460655
       38.64221       53.36469740        0.55633885
       38.74190       56.14144977        0.57659282
       38.84160       59.41149494        0.59509181
       38.94129       64.95242222        0.65366300
       39.04098       74.97135782        0.63239706
       39.14068       82.79009051        0.69128055
       39.24037       82.69829171        0.69053982
       39.34006       79.22995928        0.70114871
       39.43976       73.66879222        0.73564556
       39.53945       67.85407239        0.63152326
       39.63914       58.54574559        0.58349141
       39.73884       54.11086558        0.56263450
       39.83853       51.48134638        0.54452562
       39.93822       49.79471709        0.56731880
       40.03792       49.11406853        0.51417544
       40.13761       49.58023543        0.51816835
       40.23730       49.69133577        0.53780149
       40.33700       50.75116889        0.56022165
       40.43669       49.77316402        0.57987185
       40.53638       50.82861347        0.54472842
       40.63608       51.39341876        0.55797005
       40.73577       51.10214378        0.55329615
       40.83546       51.11132817        0.55827768
       40.93516       51.28090199        0.57003454
       41.03485       51.73396961        0.54009802
       41.13454       50.16817345        0.53254762
       41.23424       49.56647328        0.54197046
       41.33393       48.87416609        0.56226577
       41.43362       48.72955325        0.57941404
       41.53332       48.36235130        0.53904950
       41.63301       48.63448748        0.55092622
       41.73270       48.41462019        0.53757249
       41.83240       47.10542974        0.54617578
       41.93209       49.11005036        0.55425851
       42.03179       47.96293899        0.49977326
       42.13148       47.94045795        0.52499652
       42.23117       48.34444816        0.52747692
       42.33087       47.90957428        0.56176582
       42.43056       47.14105889        0.54585138
       42.53025       47.47980650        0.53008708
       42.62995       47.83676069        0.53546481
       42.72964       48.12828703        0.53968775
       42.82933       47.90648933        0.54759601
       42.92903       46.92722495        0.52239763
       43.02872       47.26912288        0.49692484
       43.12841       46.43780955        0.50185197
       43.22811       46.07913773        0.52497804
       43.32780       46.29048432        0.55381778
       43.42749       45.56214070        0.53871745
       43.52719       47.20285016        0.52847215
       43.62688       45.73059374        0.51829125
       43.72657       45.63432325        0.53034945
       43.82627       45.50410724        0.55411310
       43.92596       44.34394755        0.49443247
       44.02565       44.31619882        0.49054288
       44.12535       43.62776144        0.50411264
       44.22504       43.43530968        0.52372480
       44.32473       43.20439707        0.55107192
       44.42443       43.24869101        0.52949549
       44.52412       43.67396173        0.51657949
       44.62381       42.87458903        0.51963840
       44.72351       43.23559905        0.50469811
       44.82320       42.22456519        0.55781410
       44.92289       42.63756634        0.46650763
       45.02259       42.52526045        0.46982783
       45.12228       41.79417009        0.48203133
       45.22197       41.80845410        0.49395787
       45.32167       41.37898139        0.54385147
       45.42136       41.20365096        0.49451230
       45.52105       41.17639893        0.48977751
       45.62075       40.30184707        0.49049193
       45.72044       41.24569037        0.49477675
       45.82013       39.59369062        0.52915065
       45.91983       39.97290969        0.45356908
       46.01952       40.46390974        0.46834764
       46.11921       40.68111111        0.47050814
       46.21891       39.30286784        0.48557371
       46.31860       39.45925522        0.52585426
       46.41829       38.84600016        0.48184622
       46.51799       38.83490291        0.48258849
       46.61768       38.59390735        0.47859158
       46.71738       39.38084205        0.49684926
       46.81707       39.41272858        0.51598600
       46.91676       40.08845276        0.45544598
       47.01646       40.03753487        0.46729106
       47.11615       38.86375002        0.46977077
       47.21584       40.27581487        0.49301590
       47.31554       38.87711993        0.52592212
       47.41523       39.62734590        0.49757288
       47.51492       39.75935438        0.50057224
       47.61462       39.77578832        0.49849708
       47.71431       38.98050639        0.49919659
       47.81400       39.08080589        0.51369590
       47.91370       38.56483509        0.44833446
       48.01339       38.74017017        0.44832710
       48.11308       38.50349233        0.46201794
       48.21278       37.69870056        0.47564259
       48.31247       37.30248323        0.48794155
       48.41216       37.49098046        0.45764953
       48.51186       37.90638000        0.47596051
       48.61155       37.74980584        0.47263813
       48.71124       38.01807637        0.48397219
       48.81094       39.13046600        0.48813354
       48.91063       37.73811128        0.42820111
       49.01032       38.62195528        0.44626230
       49.11002       38.74761975        0.46391081
       49.20971       38.06399567        0.48418022
       49.30940       37.50848721        0.49645991
       49.40910       39.22528700        0.48330208
       49.50879       38.03858611        0.48504999
       49.60848       38.07781158        0.49007652
       49.70818       38.17484414        0.50978198
       49.80787       38.52663064        0.49684485
       49.90756       38.18446057        0.44856839
       50.00726       38.77811965        0.46254342
       50.10695       38.09920516        0.46961571
       50.20664       39.31537040        0.50019618
       50.30634       39.48443515        0.52481964
       50.40603       39.18667735        0.49001967
       50.50572       39.76448937        0.49385594
       50.60542       39.54219272        0.49297227
       50.70511       39.51584396        0.50622514
       50.80480       39.21327648        0.49461667
       50.90450       39.52161697        0.45003038
       51.00419       39.63945377        0.45669314
       51.10388       39.30099486        0.46989865
       51.20358       40.69128395        0.50958187
       51.30327       39.99465697        0.50206489
       51.40297       40.28269078        0.48229427
       51.50266       39.52549636        0.48055574
       51.60235       39.90619661        0.49216636
       51.70205       40.78903275        0.52957825
       51.80174       39.70322854        0.48171754
       51.90143       40.22867935        0.45351760
       52.00113       39.92332184        0.45307734
       52.10082       39.45047678        0.46575198
       52.20051       39.73362513        0.51327348
       52.30021       39.95526968        0.49437482
       52.39990       38.69861469        0.47693306
       52.49959       38.19222991        0.48274904
       52.59929       37.72532449        0.48869707
       52.69898       38.02088791        0.53885411
       52.79867       39.23286331        0.46234464
       52.89837       38.50713778        0.44125137
       52.99806       37.99030001        0.44502022
       53.09775       37.08532378        0.45238811
       53.19745       37.78345524        0.52226406
       53.29714       37.06895920        0.45700647
       53.39683       37.94427274        0.48167692
       53.49653       37.00844908        0.47963668
       53.59622       38.02953049        0.48636140
       53.69591       36.99407201        0.52721111
       53.79561       37.57064678        0.44448812
       53.89530       36.44349536        0.43165090
       53.99499       37.60645990        0.44621878
       54.09469       36.81199170        0.46299626
       54.19438       34.66182834        0.48924900
       54.29407       35.67577383        0.45863696
       54.39377       36.47103101        0.46747695
       54.49346       35.51015741        0.46210733
       54.59315       35.60363420        0.46999445
       54.69285       34.45994575        0.49264830
       54.79254       35.82193013        0.43029118
       54.89223       34.94387769        0.42107136
       54.99193       34.55522985        0.43171504
       55.09162       35.14122723        0.45488612
       55.19131       34.89833718        0.48832207
       55.29101       35.49830636        0.45843339
       55.39070       34.77531535        0.46752337
       55.49039       34.24626995        0.46094808
       55.59009       34.06008081        0.47382720
       55.68978       34.22247974        0.48635480
       55.78947       34.09121264        0.42351000
       55.88917       34.72957275        0.42841055
       55.98886       36.49305863        0.44359856
       56.08856       38.12691065        0.46896473
       56.18825       41.13673100        0.52679991
       56.28794       44.54170479        0.50088590
       56.38764       49.97866579        0.54834766
       56.48733       56.62299200        0.59145167
       56.58702       60.48194217        0.62869190
       56.68672       60.81460494        0.65101310
       56.78641       63.65757439        0.57562335
       56.88610       61.47863458        0.57119473
       56.98580       55.31392888        0.54149309
       57.08549       48.62947609        0.53806351
       57.18518       43.25385435        0.52523400
       57.28488       38.42836936        0.45963652
       57.38457       35.99216306        0.47085195
       57.48426       34.95660760        0.47382942
       57.58396       33.14202077        0.47420984
       57.68365       33.64017807        0.48416131
       57.78334       33.69147184        0.42383936
       57.88304       33.02326037        0.42444764
       57.98273       33.06590148        0.43094604
       58.08242       33.05291746        0.46404132
       58.18212       32.92727624        0.47243622
       58.28181       32.14365023        0.43786484
       58.38150       32.47823386        0.46373940
       58.48120       32.54346688        0.47581929
       58.58089       32.81893458        0.48426955
       58.68058       33.37861235        0.47788327
       58.78028       32.88651313        0.41370577
       58.87997       31.81852345        0.39919334
       58.97966       32.02416098        0.41420967
       59.07936       32.27206547        0.44303276
       59.17905       32.07635625        0.44803653
       59.27874       32.68498713        0.43063877
       59.37844       31.43665069        0.43647580
       59.47813       32.96101318        0.46566760
       59.57782       32.18765792        0.48024792
       59.67752       30.96757152        0.43802664
       59.77721       31.57670188        0.40620704
       59.87690       31.06515092        0.39953610
       59.97660       30.01366703        0.41175646
       60.07629       29.94600419        0.44637736
       60.17598       30.69212300        0.43336497
       60.27568       30.78545298        0.42136369
       60.37537       30.52308435        0.42704264
       60.47506       30.85238650        0.44622448
       60.57476       29.77649168        0.48107487
       60.67445       30.91101371        0.41953010
       60.77415       29.83553788        0.39126749
       60.87384       31.15137270        0.39471115
       60.97353       29.84924926        0.40800210
       61.07323       30.24077292        0.46294595
       61.17292       29.82763833        0.39735408
       61.27261       29.70233808        0.40964835
       61.37231       29.09593303        0.41934688
       61.47200       29.27590286        0.43773804
       61.57169       28.31728021        0.48941244
       61.67139       29.13708860        0.40552305
       61.77108       29.47353607        0.39967209
       61.87077       29.11155321        0.39435314
       61.97047       28.96885540        0.40772242
       62.07016       29.78248775        0.46809420
       62.16985       28.87758010        0.40367125
       62.26955       29.02151924        0.42005247
       62.36924       28.59933254        0.43093606
       62.46893       28.85348271        0.44939950
       62.56863       28.99957646        0.50685044
       62.66832       29.17640564        0.41275649
       62.76801       29.13012366        0.40182708
       62.86771       28.81904766        0.39027026
       62.96740       28.69143304        0.39999554
       63.06709       29.17133514        0.44944932
       63.16679       27.99093718        0.38827892
       63.26648       28.34295582        0.40363207
       63.36617       28.51481992        0.42245839
       63.46587       28.49911558        0.43731342
       63.56556       29.32571082        0.47265088
       63.66525       28.41075420        0.39340766
       63.76495       27.31399630        0.37436956
       63.86464       28.36925932        0.37926165
       63.96433       28.70513412        0.39881314
       64.06403       28.04888420        0.42074660
       64.16372       28.36118350        0.39332301
       64.26341       29.10277448        0.41788575
       64.36311       29.13885935        0.42673108
       64.46280       29.39258872        0.45252840
       64.56249       29.03851111        0.45668844
       64.66219       28.85372712        0.39767335
       64.76188       28.67800026        0.39054566
       64.86157       28.04841200        0.38415366
       64.96127       28.93952241        0.41063740
       65.06096       29.72121553        0.45198546
       65.16065       30.11790274        0.41271704
       65.26035       30.24860941        0.42201166
       65.36004       30.35895805        0.43992105
       65.45974       30.77170634        0.45705301
       65.55943       31.13109704        0.48029049
       65.65912       31.89344658        0.42100053
       65.75882       31.82794809        0.41662957
       65.85851       33.29035856        0.42660869
       65.95820       33.95607068        0.45394902
       66.05790       35.25125267        0.47830628
       66.15759       35.57389531        0.45641451
       66.25728       37.15987704        0.48016836
       66.35698       39.29681309        0.51300108
       66.45667       43.20101708        0.57087912
       66.55636       47.92594002        0.59914906
       66.65606       56.05807047        0.57652746
       66.75575       72.12160078        0.64532561
       66.85544      101.35453355        0.76365225
       66.95514      152.14125016        0.98215974
       67.05483      220.03947206        1.20314640
       67.15452      332.11330597        1.43421561
       67.25422      469.36104581        1.82874501
       67.35391      599.09444171        2.20927318
       67.45360      700.50152609        2.57478148
       67.55330      775.57392173        2.64774750
       67.65299      849.30020541        2.53070649
       67.75268      872.26556433        2.54208392
       67.85238      841.49234267        2.50942299
       67.95207      757.40565201        2.50770410
       68.05176      638.93832774        2.13579692
       68.15146      462.21944442        1.73817475
       68.25115      311.55095881        1.47364932
       68.35084      210.19949207        1.24670728
       68.45054      155.21136118        1.17316015
       68.55023      111.87517754        0.85066616
       68.64992       76.90702846        0.64974036
       68.74962       56.33903524        0.55862909
       68.84931       46.24365016        0.51191156
       68.94900       41.61806746        0.54841420
       69.04870       37.46957671        0.43728019
       69.14839       36.43334121        0.44701643
       69.24808       34.57679668        0.46944471
       69.34778       33.25840595        0.47455507
       69.44747       31.81144154        0.53600588
       69.54716       31.67398974        0.41681206
       69.64686       30.32521538        0.40125836
       69.74655       29.56133747        0.39817717
       69.84625       29.47820722        0.40696715
       69.94594       29.60881937        0.46036069
       70.04563       28.74743372        0.37642065
       70.14533       29.48282059        0.39791134
       70.24502       28.45140768        0.41736409
       70.34471       28.95156374        0.44506149
       70.44441       29.87070088        0.53105669
       70.54410       30.00918096        0.41618499
       70.64379       31.51364513        0.42394359
       70.74349       33.33302189        0.44260517
       70.84318       34.75959937        0.47346146
       70.94287       35.57042499        0.52879884
       71.04257       36.83726295        0.44427486
       71.14226       36.73309039        0.45956370
       71.24195       36.61460593        0.48184336
       71.34165       35.37797437        0.49987744
       71.44134       34.56192011        0.54988967
       71.54103       32.98237482        0.43699322
       71.64073       31.56137018        0.41922737
       71.74042       30.21796787        0.40564847
       71.84011       27.34560140        0.39993542
       71.93981       27.26545089        0.43432606
       72.03950       26.41027507        0.36036667
       72.13919       26.36328159        0.37513036
       72.23889       25.64102473        0.38438743
       72.33858       24.87864299        0.42183092
       72.43827       25.05853691        0.46539560
       72.53797       25.57318049        0.38303076
       72.63766       25.02710507        0.37179397
       72.73735       25.17350563        0.36357973
       72.83705       25.90256062        0.38853452
       72.93674       24.87965224        0.40395417
       73.03643       24.68420626        0.34785522
       73.13613       24.88242867        0.36674258
       73.23582       25.09542353        0.38829818
       73.33551       25.31438817        0.43210827
       73.43521       24.60757711        0.46260839
       73.53490       25.56833129        0.38024815
       73.63459       25.61728384        0.37431932
       73.73429       25.57879908        0.37113643
       73.83398       25.35418304        0.39115574
       73.93367       25.44755845        0.41193448
       74.03337       25.09671889        0.36038355
       74.13306       25.26353425        0.38088143
       74.23275       26.72000548        0.40966876
       74.33245       25.14693024        0.43668163
       74.43214       26.09395051        0.45958846
       74.53184       26.07419226        0.38993271
       74.63153       24.91471230        0.37812656
       74.73122       24.16491828        0.36957625
       74.83092       23.85525084        0.38817793
       74.93061       24.14972017        0.39549991
       75.03030       24.42249588        0.35870757
       75.13000       23.99832226        0.36770533
       75.22969       24.79385590        0.38958189
       75.32938       24.77375390        0.42658843
       75.42908       23.93130092        0.42453829
       75.52877       23.87579050        0.36776701
       75.62846       23.28604037        0.36071860
       75.72816       23.37749484        0.36160188
       75.82785       23.35126619        0.39152734
       75.92754       24.37433062        0.37832029
       76.02724       23.91339638        0.34955638
       76.12693       23.57804021        0.36102764
       76.22662       22.37229692        0.37096538
       76.32632       23.58944595        0.43023445
       76.42601       23.18506531        0.39911580
       76.52570       23.13307419        0.36660871
       76.62540       23.31378795        0.36767721
       76.72509       23.39678280        0.36521204
       76.82478       23.41438045        0.42159538
       76.92448       22.72466609        0.33002013
       77.02417       22.42976014        0.33907946
       77.12386       22.44916933        0.35563726
       77.22356       22.59307544        0.37846156
       77.32325       22.41743899        0.46095739
       77.42294       22.30150633        0.36802575
       77.52264       23.29488210        0.36920773
       77.62233       22.84486335        0.36376836
       77.72202       22.35023087        0.35893906
       77.82172       23.41246691        0.42928628
       77.92141       22.55376156        0.32294702
       78.02110       22.64269069        0.34835452
       78.12080       22.77188832        0.37055782
       78.22049       22.34862191        0.39038612
       78.32018       22.30830771        0.45426398
       78.41988       23.31078264        0.36712264
       78.51957       22.01432391        0.36746772
       78.61926       22.56156608        0.36951812
       78.71896       22.65903738        0.37100560
       78.81865       22.48184642        0.41174953
       78.91834       21.75999909        0.31230257
       79.01804       21.84546196        0.34453019
       79.11773       22.39858135        0.36559301
       79.21743       22.76377821        0.39400581
       79.31712       22.05947096        0.43667166
       79.41681       22.60945399        0.35652771
       79.51651       23.08967182        0.36671943
       79.61620       23.05520779        0.36675432
       79.71589       22.45427534        0.37486958
       79.81559       21.86524587        0.39084126
       79.91528       22.42214060        0.33634660
       80.01497       23.12118935        0.35590932
       80.11467       22.30589491        0.36406313
       80.21436       23.16061391        0.39591527
       80.31405       21.96249039        0.45759991
       80.41375       22.53182950        0.35470155
       80.51344       22.12897120        0.34981975
       80.61313       21.95363243        0.35779035
       80.71283       22.41893285        0.37579434
       80.81252       21.74114022        0.41695500
       80.91221       22.53237041        0.31676826
       81.01191       22.29836343        0.33774805
       81.11160       22.09174206        0.36212513
       81.21129       21.98618334        0.39012537
       81.31099       22.37520593        0.43836218
       81.41068       21.71113135        0.33622247
       81.51037       21.92502485        0.34660679
       81.61007       21.55340263        0.36297086
       81.70976       21.61363037        0.37674003
       81.80945       21.87279071        0.40310209
       81.90915       21.62068395        0.30528392
       82.00884       22.15975361        0.33082246
       82.10853       21.93215645        0.36668861
       82.20823       21.99233407        0.40618869
       82.30792       21.14313315        0.41635677
       82.40761       21.62200185        0.34412939
       82.50731       22.04511968        0.35158491
       82.60700       21.61576405        0.37280118
       82.70669       22.14386186        0.41093917
       82.80639       21.37419114        0.38471012
       82.90608       22.33977837        0.31879436
       83.00577       21.77464208        0.33287445
       83.10547       22.68109286        0.39903073
       83.20516       22.23882422        0.44264585
       83.30485       23.07662708        0.43093267
       83.40455       23.31399948        0.36147270
       83.50424       23.49160833        0.35221413
       83.60393       24.14052190        0.39317415
       83.70363       24.88362956        0.44875098
       83.80332       24.24514811        0.38755795
       83.90302       25.03223107        0.32921695
       84.00271       25.17847968        0.34366433
       84.10240       26.18532940        0.42435312
       84.20210       26.49173443        0.51850538
       84.30179       26.56048541        0.42225428
       84.40148       26.17940655        0.36817381
       84.50118       25.64628847        0.35783199
       84.60087       26.42876086        0.40946646
       84.70056       25.38149845        0.52178678
       84.80026       25.19380662        0.36318934
       84.89995       25.04354458        0.32684832
       84.99964       24.79341136        0.33850190
       85.09934       22.99977306        0.38404996
       85.19903       20.79774094        0.62506203
       85.29872       22.53549353        0.34244849
       85.39842       22.41908070        0.34714953
       85.49811       21.14720529        0.32746879
       85.59780       21.14318569        0.36679479
       85.69750       21.77228547        0.66960749
       85.79719       21.41432343        0.31713341
       85.89688       21.41046542        0.30970398
       85.99658       21.39229097        0.31689773
       86.09627       20.94462799        0.35931212
       86.19596       20.70541171        0.68936143
       86.29566       21.28284064        0.32901749
       86.39535       20.73213428        0.32813200
       86.49504       20.57813457        0.32173126
       86.59474       21.43931391        0.35507657
       86.69443       22.88784487        0.76888545
       86.79412       21.01845659        0.30656103
       86.89382       21.40245244        0.30133348
       86.99351       20.77897384        0.30823848
       87.09320       21.20798916        0.34536412
       87.19290       20.54726338        0.80635343
       87.29259       21.00523709        0.32826929
       87.39228       21.20112170        0.33780865
       87.49198       21.37818174        0.33237053
       87.59167       21.14949654        0.33457223
       87.69136       21.89641536        1.01845949
       87.79106       20.80138849        0.30776655
       87.89075       21.90704574        0.31337159
       87.99044       21.25292169        0.31944016
       88.09014       20.96982151        0.33697454
       88.18983       23.38454989        1.89481964
       88.28952       21.66186318        0.34892972
       88.38922       21.49385895        0.35092075
       88.48891       20.91557952        0.33052262
       88.58861       21.05810064        0.32014672
       88.68830       20.16053836        2.45403465
       88.78799       20.80780490        0.30702737
       88.88769       20.72040022        0.29773718
       88.98738       21.51025376        0.31671414
       89.08707       21.99533607        0.33150129
       89.18677       22.28330126        2.71904399
       89.28646       21.66924234        0.33334590
       89.38615       21.46056615        0.33291541
       89.48585       21.05338699        0.32347698
       89.58554       21.26462098        0.31719011
       89.68523       20.45031675        2.51359009
       89.78493       21.09193784        0.30509404
       89.88462       21.29615838        0.30391414
       89.98431       21.29229215        0.31363279
       90.08401       21.01059044        0.32045685
       90.18370       23.12041386        2.78388097
       90.28339       20.78418205        0.32508139
       90.38309       21.05540142        0.33227826
       90.48278       21.17770686        0.32578707
       90.58247       21.36156808        0.32193799
       90.68217       23.95760157        2.69313009
       90.78186       21.80384419        0.31551380
       90.88155       22.05105704        0.30940270
       90.98125       21.91422370        0.31701773
       91.08094       22.35145299        0.33043948
       91.18063       27.72165948        2.93714706
       91.28033       22.45342013        0.34032647
       91.38002       22.48213432        0.34785854
       91.47971       22.69573617        0.34107458
       91.57941       23.04186193        0.33729059
       91.67910       20.93901255        2.43471544
       91.77879       24.18760789        0.33106748
       91.87849       24.24129553        0.32457368
       91.97818       25.25694128        0.34407643
       92.07787       26.44685756        0.36531061
       92.17757       29.49398228        2.93143604
       92.27726       27.93104827        0.38674613
       92.37695       32.05148234        0.42805875
       92.47665       37.22959286        0.44371447
       92.57634       42.98908600        0.45928989
       92.67603       49.14167991        3.21268057
       92.77573       51.74188069        0.48615331
       92.87542       66.32716180        0.54040751
       92.97511       90.59658844        0.66053174
       93.07481      124.89625739        0.89013366
       93.17450      142.03409498        1.79658492
       93.27420      174.71068249        0.99131869
       93.37389      222.76497170        1.09915678
       93.47358      265.74959635        1.21697294
       93.57328      298.19101611        1.50121469
       93.67297      308.43498186        2.06261566
       93.77266      325.96342462        1.31773090
       93.87236      341.67983309        1.28418523
       93.97205      361.71956498        1.39637089
       94.07174      379.44797070        1.87733614
       94.17144      382.86742193        2.15605698
       94.27113      377.67355111        1.58234163
       94.37082      370.91433200        1.51765637
       94.47052      356.17513520        1.42441424
       94.57021      326.12682588        1.78790214
       94.66990      310.80515790        1.75612604
       94.76960      266.55963670        1.24791392
       94.86929      209.93432204        1.00650489
       94.96898      143.84958404        0.83463910
       95.06868      104.90597329        0.81144313
       95.16837       90.53925544        1.02601047
       95.26806       76.41833540        0.72589924
       95.36776       64.64722426        0.60349979
       95.46745       54.21395150        0.52956908
       95.56714       44.66973263        0.55009992
       95.66684       40.83310459        0.59461944
       95.76653       36.40020966        0.46614361
       95.86622       31.99948399        0.37173648
       95.96592       29.62344918        0.36858940
       96.06561       27.98170407        0.45878753
       96.16530       29.33815695        0.49880141
       96.26500       28.31495478        0.44030765
       96.36469       29.11445595        0.39826414
       96.46438       30.89018026        0.39925361
       96.56408       32.43325466        0.51108428
       96.66377       31.87014782        0.49204227
       96.76346       33.92301953        0.45245084
       96.86316       34.02000933        0.39097062
       96.96285       34.78023953        0.40787632
       97.06254       35.80393852        0.55784024
       97.16224       36.10042668        0.53607846
       97.26193       34.86583578        0.49256629
       97.36162       35.96527679        0.46827676
       97.46132       36.47405578        0.43811972
       97.56101       36.35793490        0.55238816
       97.66071       34.86649671        0.48388126
       97.76040       35.40062344        0.44325071
       97.86009       33.30579719        0.38733946
       97.95979       31.20114077        0.38084635
       98.05948       29.20864338        0.51511438
       98.15917       28.78736665        0.45665260
       98.25887       27.42995474        0.42820052
       98.35856       25.72571371        0.38965360
       98.45825       24.43998283        0.35300658
       98.55795       24.02872805        0.45665638
       98.65764       23.27773651        0.38508392
       98.75733       22.54586413        0.35232065
       98.85703       21.43263737        0.32013494
       98.95672       22.04844176        0.32594303
       99.05641       21.50359881        0.44880797
       99.15611       21.68367325        0.38659891
       99.25580       21.57807314        0.37193952
       99.35549       21.59678701        0.35356418
       99.45519       21.14100565        0.32566319
       99.55488       20.89489548        0.43212763
       99.65457       21.15261412        0.35811930
       99.75427       20.89417928        0.33328121
       99.85396       22.13718811        0.33059460
       99.95365       21.38916573        0.31846620
      100.05335       21.79525222        0.45569837
      100.15304       21.48056898        0.37992154
      100.25273       21.19524016        0.37296584
      100.35243       21.20024349        0.37025766
      100.45212       21.10825022        0.33697982
      100.55181       21.66997717        0.44947402
      100.65151       21.08634303        0.36253803
      100.75120       21.77033670        0.34301115
      100.85089       21.32120855        0.32366275
      100.95059       21.38895991        0.31490442
      101.05028       21.69508191        0.45245895
      101.14997       20.86356898        0.36551655
      101.24967       21.53440419        0.36595976
      101.34936       20.97684275        0.36271278
      101.44905       21.20342237        0.34588031
      101.54875       20.76958452        0.43013543
      101.64844       20.47877180        0.34748596
      101.74813       21.49426615        0.33393764
      101.84783       20.84894086        0.31872999
      101.94752       20.12468447        0.32983204
      102.04721       20.58932492        0.40095385
      102.14691       20.90373383        0.36370125
      102.24660       20.14141742        0.35401502
      102.34630       20.60041318        0.36076819
      102.44599       21.31642417        0.37238370
      102.54568       20.19468168        0.37931633
      102.64538       20.68639383        0.34232086
      102.74507       20.25123719        0.32166449
      102.84476       20.24768458        0.31506030
      102.94446       20.03640352        0.35544556
      103.04415       20.18337185        0.38106260
      103.14384       20.75238732        0.36213489
      103.24354       20.91749516        0.35854894
      103.34323       20.64566664        0.35265680
      103.44292       20.52495571        0.38046536
      103.54262       20.24289903        0.36672316
      103.64231       19.83264962        0.32952553
      103.74200       19.90206571        0.31431066
      103.84170       19.85587280        0.30781259
      103.94139       19.96829746        0.37491091
      104.04108       20.35826814        0.36665353
      104.14078       19.96053277        0.35163265
      104.24047       20.60799038        0.35641420
      104.34016       19.70664934        0.34995783
      104.43986       20.32614268        0.40481453
      104.53955       19.57525990        0.35810688
      104.63924       20.24874893        0.34158291
      104.73894       19.69230205        0.32370425
      104.83863       20.00336550        0.31670643
      104.93832       20.02825834        0.38374873
      105.03802       19.63467859        0.35660721
      105.13771       20.94452400        0.35446310
      105.23740       20.40794415        0.34851321
      105.33710       20.04596639        0.34614795
      105.43679       19.30797737        0.39542376
      105.53648       19.64993311        0.35890006
      105.63618       19.56790318        0.32942376
      105.73587       19.75651830        0.31666706
      105.83556       20.07949374        0.31041991
      105.93526       20.08139032        0.39265892
      106.03495       20.28195726        0.35737853
      106.13464       19.91429105        0.34175275
      106.23434       19.98474588        0.34436190
      106.33403       19.89306011        0.34727772
      106.43372       20.19654400        0.41854623
      106.53342       19.86215801        0.36156562
      106.63311       20.18026687        0.33139901
      106.73280       20.34317057        0.31601912
      106.83250       19.91506777        0.30725229
      106.93219       20.04411915        0.39891561
      107.03189       19.87787554        0.35202166
      107.13158       19.87331705        0.34091295
      107.23127       20.63486341        0.35389974
      107.33097       19.60750277        0.34506217
      107.43066       20.13802388        0.42135914
      107.53035       20.34878532        0.36406501
      107.63005       20.31593626        0.33100282
      107.72974       19.80138135        0.31305950
      107.82943       19.41116055        0.30556538
      107.92913       19.42987767        0.40410549
      108.02882       19.82755989        0.35790427
      108.12851       19.84562908        0.34227991
      108.22821       20.17965490        0.34029389
      108.32790       20.90588765        0.34195674
      108.42759       20.09891083        0.42506774
      108.52729       20.01559272        0.35966538
      108.62698       20.61798870        0.33004010
      108.72667       20.73822663        0.31727060
      108.82637       20.57786993        0.32378550
      108.92606       20.26051113        0.40894968
      109.02575       21.34018311        0.36726626
      109.12545       21.42419305        0.35837537
      109.22514       22.62829550        0.36743629
      109.32483       23.00344549        0.40290515
      109.42453       23.38872878        0.42832059
      109.52422       24.30760952        0.39398609
      109.62391       24.82054091        0.37827276
      109.72361       25.31747610        0.36585289
      109.82330       26.72693034        0.35376832
      109.92299       27.33429079        0.46532867
      110.02269       27.55000018        0.40735511
      110.12238       27.66632883        0.40522866
      110.22207       28.35697192        0.40677956
      110.32177       27.64717439        0.40938682
      110.42146       28.30582850        0.50208949
      110.52115       28.69015959        0.43011413
      110.62085       29.85032015        0.41529482
      110.72054       29.86822785        0.39004301
      110.82023       29.91549093        0.40176481
      110.91993       28.76490375        0.45759235
      111.01962       29.10266673        0.42528956
      111.11931       28.93732106        0.42604910
      111.21901       28.66518596        0.41553772
      111.31870       27.49017450        0.44061764
      111.41839       27.14243142        0.45577318
      111.51809       27.10066289        0.41548205
      111.61778       26.14914975        0.38419866
      111.71748       25.10652616        0.34884491
      111.81717       23.18263963        0.36267271
      111.91686       22.60227575        0.37634631
      112.01656       22.13581074        0.36360585
      112.11625       21.31084855        0.35891291
      112.21594       21.03965213        0.35587510
      112.31564       20.84152638        0.39258300
      112.41533       21.15157506        0.38835859
      112.51502       21.16552549        0.35713404
      112.61472       20.89375750        0.33808440
      112.71441       20.04651935        0.31179443
      112.81410       20.18183074        0.34973198
      112.91380       20.07634045        0.35490477
      113.01349       19.63250423        0.34423935
      113.11318       20.30765919        0.35041835
      113.21288       19.39546805        0.34183987
      113.31257       19.44516015        0.37823228
      113.41226       19.74761334        0.36151214
      113.51196       19.51002224        0.33782436
      113.61165       19.38950944        0.32501760
      113.71134       19.80318280        0.31284564
      113.81104       19.54402938        0.35609344
      113.91073       19.40855097        0.34593956
      114.01042       19.46343753        0.34351188
      114.11012       19.41215462        0.34248348
      114.20981       20.37550044        0.35244830
      114.30950       20.52280735        0.40082434
      114.40920       19.41557144        0.35980458
      114.50889       19.53335004        0.33783915
      114.60858       19.93513383        0.33101299
      114.70828       20.16457247        0.32167813
      114.80797       19.65112291        0.36189449
      114.90766       20.09258546        0.34445002
      115.00736       19.45533082        0.33661346
      115.10705       19.46721004        0.33778689
      115.20674       19.88925615        0.34679088
      115.30644       19.48441212        0.39314951
      115.40613       19.47526376        0.35647565
      115.50582       20.24143024        0.34389550
      115.60552       20.29779228        0.33343897
      115.70521       20.48797952        0.32249696
      115.80490       19.88640917        0.36965549
      115.90460       20.25684551        0.33751409
      116.00429       20.04953299        0.33971913
      116.10398       19.96169349        0.34114299
      116.20368       20.05183887        0.34950295
      116.30337       20.30380572        0.42013202
      116.40307       20.26618252        0.36693400
      116.50276       19.95387632        0.34487447
      116.60245       20.86380432        0.33908655
      116.70215       20.67731683        0.32525186
      116.80184       20.51330961        0.38429905
      116.90153       20.57552591        0.34644815
      117.00123       20.29933915        0.34104053
      117.10092       20.31502104        0.35013327
      117.20061       20.52316878        0.35729472
      117.30031       20.81189856        0.43263707
      117.40000       20.89289484        0.36312555
      117.49969       21.24315671        0.34758078
      117.59939       20.75985539        0.32783560
      117.69908       21.84990439        0.32566320
      117.79877       21.60167137        0.39704986
      117.89847       21.82715826        0.34656545
      117.99816       21.29992629        0.34730038
      118.09785       22.96555595        0.36950678
      118.19755       24.02406751        0.39488894
      118.29724       24.26108465        0.43252732
      118.39693       25.62980195        0.40563265
      118.49663       27.36306516        0.39433430
      118.59632       28.84103143        0.38972197
      118.69601       30.64361385        0.41996902
      118.79571       33.07276064        0.47221149
      118.89540       36.19972182        0.46208281
      118.99509       39.18044915        0.48107783
      119.09479       42.39053953        0.50455713
      119.19448       45.37973858        0.56883936
      119.29417       50.82077568        0.62660676
      119.39387       55.60767520        0.60381771
      119.49356       63.12654450        0.60595036
      119.59325       74.89572125        0.64368285
      119.69295       91.32973176        0.75435565
      119.79264      107.38614385        0.83106492
      119.89233      125.11003801        0.87222339
      119.99203      144.06194385        0.91716649
      120.09172      162.75858530        0.99814129
      120.19141      177.33445825        1.17214692
      120.29111      190.65139089        1.20376604
      120.39080      202.72802381        1.18850982
      120.49049      215.42911212        1.14562259
      120.59019      227.57468312        1.14666817
      120.68988      237.62202501        1.26502444
      120.78957      242.99227298        1.25031410
      120.88927      248.00594499        1.24326017
      120.98896      252.34664539        1.24190180
      121.08866      258.36091758        1.26335149
      121.18835      264.97939278        1.47177697
      121.28804      268.92436674        1.44619933
      121.38774      275.34566754        1.38966850
      121.48743      277.73832815        1.32192955
      121.58712      280.73590339        1.26771425
      121.68682      279.87568146        1.39385783
      121.78651      277.42831950        1.32360552
      121.88620      276.35195274        1.30443255
      121.98590      268.80241525        1.29263648
      122.08559      257.63704667        1.28747323
      122.18528      253.00979234        1.48841630
      122.28498      243.55673262        1.36893138
      122.38467      230.79745919        1.27170706
      122.48436      208.87004141        1.13907325
      122.58406      185.95886582        1.01243916
      122.68375      163.25813931        1.06948520
      122.78344      140.79033673        0.92837835
      122.88314      121.71591255        0.85393230
      122.98283      101.60567007        0.79389559
      123.08252       89.34686656        0.74007355
      123.18222       77.01816550        0.79817781
      123.28191       68.34966238        0.68016608
      123.38160       61.21578631        0.62055191
      123.48130       54.92370370        0.56507016
      123.58099       49.51617937        0.50058667
      123.68068       45.72440739        0.54832698
      123.78038       41.22816522        0.46969665
      123.88007       38.00052676        0.44244873
      123.97976       33.12093091        0.41933590
      124.07946       29.82771890        0.39311768
      124.17915       26.68725143        0.41842206
      124.27884       26.39346829        0.37252823
      124.37854       23.97254859        0.33378147
      124.47823       22.80430703        0.31854052
      124.57792       22.18361594        0.33473763
