        5.04553       35.75109770        0.94582894
        5.14523       34.04170317        0.88276309
        5.24492       34.98235120        0.88272296
        5.34461       35.54310751        0.81922573
        5.44431       34.36876314        0.88089061
        5.54400       34.09075549        0.73121418
        5.64369       34.97557147        0.74444254
        5.74339       34.81274215        0.66565328
        5.84308       33.83581685        0.66406185
        5.94277       34.35223853        0.66745381
        6.04247       34.82740265        0.65196364
        6.14216       33.99368705        0.59284751
        6.24185       35.45975081        0.62415782
        6.34155       35.33346474        0.59442457
        6.44124       35.06050621        0.62418699
        6.54093       34.14965204        0.58398692
        6.64063       34.79086919        0.55878165
        6.74032       35.24193205        0.56245649
        6.84001       33.66083352        0.54638684
        6.93971       35.76724227        0.56835442
        7.03940       35.75415618        0.52935361
        7.13909       34.92877053        0.52078795
        7.23879       35.25808928        0.51587595
        7.33848       35.07395594        0.52244340
        7.43817       35.34394105        0.51341232
        7.53787       34.85966963        0.50323756
        7.63756       34.85221577        0.47989147
        7.73725       35.31347845        0.50229054
        7.83695       34.45618166        0.47990932
        7.93664       35.01942253        0.50478176
        8.03633       35.43246816        0.45721192
        8.13603       35.62368696        0.45311033
        8.23572       35.61450705        0.46195922
        8.33541       35.09414067        0.45396457
        8.43511       34.99147147        0.47961190
        8.53480       35.42386650        0.44717996
        8.63449       35.96547219        0.44647205
        8.73419       35.98995165        0.43604896
        8.83388       35.42736875        0.43501518
        8.93357       36.22300587        0.43896652
        9.03327       36.15957236        0.42713524
        9.13296       35.54339881        0.42123678
        9.23265       35.86930272        0.42843729
        9.33235       35.99372537        0.44179641
        9.43204       36.67702554        0.44430242
        9.53174       35.62708342        0.42070028
        9.63143       35.29327877        0.43273623
        9.73112       36.28742152        0.43893649
        9.83082       36.21427925        0.45751905
        9.93051       36.20348600        0.45064443
       10.03020       36.38627284        0.43672542
       10.12990       37.14848216        0.43079077
       10.22959       36.86405496        0.44653101
       10.32928       36.91361819        0.46552372
       10.42898       37.27015184        0.46177190
       10.52867       37.06221812        0.44536003
       10.62836       37.13024479        0.44567335
       10.72806       37.89791183        0.45592982
       10.82775       37.52231263        0.45250656
       10.92744       38.40758053        0.46470537
       11.02714       38.07127373        0.44189836
       11.12683       38.63921579        0.46020783
       11.22652       39.03329284        0.46800548
       11.32622       38.49227030        0.47696425
       11.42591       38.32167408        0.45920545
       11.52560       39.60651583        0.46171197
       11.62530       39.98662234        0.46808932
       11.72499       39.14374830        0.47142055
       11.82468       40.15792893        0.49049795
       11.92438       39.34196172        0.46122584
       12.02407       39.61069486        0.45763248
       12.12376       40.55550289        0.46593628
       12.22346       39.92274773        0.49046228
       12.32315       40.61232536        0.49957526
       12.42284       40.76344642        0.47722274
       12.52254       40.66924407        0.47287666
       12.62223       40.45568336        0.48467822
       12.72192       40.72904040        0.47249670
       12.82162       41.87891220        0.51770734
       12.92131       40.50262046        0.46727460
       13.02100       41.54013728        0.46776939
       13.12070       42.50396434        0.48106306
       13.22039       42.80724324        0.49693767
       13.32008       43.17102437        0.51806478
       13.41978       42.63958505        0.48938859
       13.51947       43.89372460        0.50588112
       13.61916       43.68502038        0.48723928
       13.71886       45.03790996        0.51895037
       13.81855       44.84941745        0.52565337
       13.91824       45.45128527        0.49808338
       14.01794       46.26605891        0.49166625
       14.11763       46.33490594        0.50957511
       14.21733       48.52527632        0.52429542
       14.31702       48.84903386        0.55253380
       14.41671       49.88254255        0.54165399
       14.51641       50.32992381        0.52914931
       14.61610       51.55527152        0.53832936
       14.71579       52.18795328        0.55158126
       14.81549       55.23980859        0.59561352
       14.91518       56.78586146        0.55232875
       15.01487       59.00856161        0.57348860
       15.11457       64.64100361        0.60811141
       15.21426       72.30256115        0.66366639
       15.31395       78.27424586        0.70953050
       15.41365       84.91848169        0.71607997
       15.51334      104.58678352        0.77384439
       15.61303      119.81945271        0.85552042
       15.71273      145.81715203        0.93201687
       15.81242      172.46190691        1.06854625
       15.91211      184.63833772        1.06909804
       16.01181      229.33285343        1.15522331
       16.11150      280.35770668        1.32865878
       16.21119      350.80515325        1.54936018
       16.31089      429.24634333        1.74120888
       16.41058      507.00000254        1.87926003
       16.51027      635.68035017        2.18965741
       16.60997      837.23936798        2.50512948
       16.70966     1048.77568394        2.96681990
       16.80935     1187.94523459        3.26043942
       16.90905     1380.40513630        3.50104222
       17.00874     1246.20962014        3.12861968
       17.10843     1003.62828147        2.87339116
       17.20813      782.65871475        2.46961428
       17.30782      598.00206936        2.11086835
       17.40751      407.62479974        1.68402965
       17.50721      304.94542266        1.38434625
       17.60690      223.33252175        1.20494444
       17.70659      168.85616367        1.04139655
       17.80629      125.25014155        0.89961164
       17.90598       96.64194466        0.73505632
       18.00567       79.32951561        0.67559546
       18.10537       70.35056493        0.61781917
       18.20506       64.95624647        0.64960538
       18.30475       60.57411115        0.59785268
       18.40445       57.90003698        0.56845053
       18.50414       55.96466510        0.57695654
       18.60384       53.45572691        0.55458858
       18.70353       51.77393008        0.57718101
       18.80322       51.36453732        0.54082968
       18.90292       49.30619619        0.52435100
       19.00261       48.41352514        0.50370217
       19.10230       48.12521989        0.53521218
       19.20200       47.15041949        0.54201419
       19.30169       46.31457949        0.51782197
       19.40138       45.37241335        0.50774080
       19.50108       45.68266363        0.52111404
       19.60077       44.59997025        0.50965388
       19.70046       43.68423224        0.52853328
       19.80016       41.50808379        0.48764344
       19.89985       41.93530879        0.47586206
       19.99954       41.18766655        0.47623296
       20.09924       42.11901806        0.48758514
       20.19893       41.75184629        0.51893360
       20.29862       40.35625397        0.48312588
       20.39832       40.74080828        0.50098885
       20.49801       40.10111262        0.48748407
       20.59770       40.24713071        0.49835776
       20.69740       39.18725980        0.50907655
       20.79709       38.64781755        0.48138266
       20.89678       38.16751291        0.46625900
       20.99648       37.55510365        0.47002067
       21.09617       37.10409494        0.48773499
       21.19586       37.20458443        0.48817770
       21.29556       37.03934994        0.47596085
       21.39525       36.83350322        0.47533313
       21.49494       36.09541223        0.46225153
       21.59464       35.32801668        0.46716944
       21.69433       35.27324027        0.48604708
       21.79402       35.76186968        0.44683162
       21.89372       35.43875340        0.43574630
       21.99341       34.95965162        0.45108958
       22.09310       35.46406179        0.45631958
       22.19280       35.12729568        0.48158752
       22.29249       35.44183883        0.45143691
       22.39218       34.08634972        0.45230833
       22.49188       33.86004081        0.45132525
       22.59157       35.18175120        0.46613883
       22.69126       34.08740107        0.48206468
       22.79096       34.51301054        0.43829463
       22.89065       33.93544104        0.42461299
       22.99034       34.08330007        0.43726613
       23.09004       34.22747412        0.45766901
       23.18973       35.41673775        0.46485188
       23.28943       35.03627031        0.45552915
       23.38912       34.71263420        0.45795451
       23.48881       34.21689350        0.45691886
       23.58851       34.21350553        0.46270493
       23.68820       34.24628310        0.48750261
       23.78789       34.14756569        0.43342320
       23.88759       33.37685271        0.43454680
       23.98728       32.90499076        0.44025906
       24.08697       33.57701191        0.43613675
       24.18667       33.08846851        0.46426516
       24.28636       32.74113503        0.43805554
       24.38605       32.56663399        0.44636587
       24.48575       33.26615439        0.45051903
       24.58544       32.63651601        0.45974366
       24.68513       31.93205498        0.45479628
       24.78483       31.84746036        0.41857126
       24.88452       33.30594727        0.42715620
       24.98421       32.65833432        0.43744497
       25.08391       33.41060157        0.45172409
       25.18360       31.45513046        0.44758788
       25.28329       32.41035498        0.43804065
       25.38299       32.47906997        0.43718249
       25.48268       32.19894765        0.43785268
       25.58237       32.09467323        0.45481380
       25.68207       32.62627836        0.44938320
       25.78176       32.38534492        0.42082654
       25.88145       33.01294981        0.43626230
       25.98115       32.50284940        0.43747838
       26.08084       31.93178177        0.44428040
       26.18053       32.18810299        0.45830608
       26.28023       32.58894641        0.43644847
       26.37992       31.69778305        0.43064447
       26.47961       31.76716575        0.44528505
       26.57931       31.52238016        0.46286051
       26.67900       31.19775618        0.43088049
       26.77869       31.80385667        0.43201574
       26.87839       32.32478954        0.43089033
       26.97808       31.68868779        0.42384623
       27.07777       32.84776245        0.46503088
       27.17747       31.79087722        0.43666072
       27.27716       32.73845541        0.43201442
       27.37685       31.61807399        0.44105275
       27.47655       32.21163312        0.43829611
       27.57624       32.33592731        0.45880615
       27.67593       32.34772430        0.44940574
       27.77563       32.22289627        0.42940899
       27.87532       32.23295778        0.42233090
       27.97502       32.61861321        0.43341365
       28.07471       31.90488168        0.45420731
       28.17440       31.64984184        0.43269261
       28.27410       32.68112978        0.43885774
       28.37379       32.40453976        0.44746653
       28.47348       32.22848345        0.44332952
       28.57318       33.39376526        0.48898255
       28.67287       31.75036245        0.42495862
       28.77256       32.71403097        0.42351639
       28.87226       32.03024981        0.42930754
       28.97195       33.00651867        0.43754090
       29.07164       32.89824516        0.47547496
       29.17134       32.82919771        0.43269206
       29.27103       33.47703660        0.44405327
       29.37072       33.60754344        0.46325236
       29.47042       33.57007007        0.45632278
       29.57011       33.18023167        0.48006093
       29.66980       33.07791549        0.43706159
       29.76950       33.95149640        0.44263303
       29.86919       34.07189178        0.43455548
       29.96888       33.76437041        0.45233556
       30.06858       34.08397805        0.46928359
       30.16827       34.41802355        0.44615725
       30.26796       34.86197655        0.44956678
       30.36766       36.40652792        0.46894067
       30.46735       35.51532929        0.46706344
       30.56704       36.43031069        0.49782235
       30.66674       37.46501530        0.47138104
       30.76643       36.53066782        0.45436682
       30.86612       37.55393653        0.47029899
       30.96582       39.75897969        0.48764720
       31.06551       41.74974119        0.52426614
       31.16520       43.76908873        0.50488619
       31.26490       49.66503231        0.53418573
       31.36459       55.69148241        0.57439909
       31.46428       70.21901735        0.67421946
       31.56398       93.97613208        0.79275089
       31.66367      113.89146286        0.81905648
       31.76336      161.25556153        0.98441807
       31.86306      249.04372059        1.23198462
       31.96275      354.83801446        1.53280737
       32.06244      428.82540518        1.76726053
       32.16214      494.90607847        1.80454201
       32.26183      473.77753725        1.80227055
       32.36152      388.47735852        1.66595737
       32.46122      290.84038002        1.43625441
       32.56091      213.35159330        1.23563056
       32.66061      140.35425164        0.94005396
       32.76030      103.25507195        0.78363892
       32.85999       92.28611757        0.75072016
       32.95969      101.12244167        0.79522030
       33.05938      134.29154795        0.93874431
       33.15907      190.50880873        1.06619730
       33.25877      292.87564841        1.38833881
       33.35846      450.98515905        1.78252181
       33.45815      654.56599750        2.31281393
       33.55785      833.18705456        2.69343703
       33.65754     1052.83728881        2.92261464
       33.75723     1133.86735293        3.07261142
       33.85693     1030.58520738        2.89472482
       33.95662      865.83835691        2.65991281
       34.05631      716.82457798        2.34407997
       34.15601      571.52593282        2.00252904
       34.25570      468.60753632        1.78335324
       34.35539      364.74182918        1.58273214
       34.45509      273.44560668        1.42426609
       34.55478      197.16132239        1.12300581
       34.65447      124.53445747        0.84639903
       34.75417       84.66117058        0.70416702
       34.85386       65.76255484        0.61090021
       34.95355       55.26087832        0.57689560
       35.05325       48.62931301        0.55890506
       35.15294       47.34624232        0.52024186
       35.25263       44.72606443        0.51421944
       35.35233       43.49538070        0.52166235
       35.45202       41.81133979        0.53405455
       35.55171       41.06534309        0.51589030
       35.65141       39.08116549        0.48578994
       35.75110       38.59851769        0.47851655
       35.85079       37.61687061        0.47013522
       35.95049       36.55977753        0.47503018
       36.05018       36.07545617        0.46417092
       36.14987       35.43468601        0.44202913
       36.24957       34.68453741        0.45646940
       36.34926       34.48184640        0.46392911
       36.44895       34.85595851        0.47493165
       36.54865       33.72996586        0.44916032
       36.64834       32.58376936        0.43190947
       36.74803       31.81426052        0.43270102
       36.84773       32.70024547        0.43625601
       36.94742       31.74967807        0.46551794
       37.04711       31.58742202        0.40884290
       37.14681       31.29306157        0.41588454
       37.24650       31.15433013        0.42548071
       37.34620       30.95802297        0.43535270
       37.44589       30.20862817        0.46005521
       37.54558       30.26320812        0.41984534
       37.64528       29.56863559        0.41527902
       37.74497       29.59542934        0.40858608
       37.84466       30.19899645        0.43713667
       37.94436       30.45315829        0.44776955
       38.04405       29.37199155        0.39767373
       38.14374       29.95415927        0.40512655
       38.24344       29.53578934        0.40841840
       38.34313       30.44764902        0.43278645
       38.44282       31.04060552        0.47291699
       38.54252       30.64571955        0.42105319
       38.64221       32.96678782        0.43652492
       38.74190       34.02031163        0.44791739
       38.84160       37.71609569        0.47320948
       38.94129       42.92407541        0.53029735
       39.04098       48.86243672        0.50906805
       39.14068       57.93649525        0.57677307
       39.24037       62.95501700        0.60156440
       39.34006       60.93957057        0.61414714
       39.43976       58.42237905        0.65470971
       39.53945       51.68395908        0.55071494
       39.63914       43.13842934        0.50053476
       39.73884       36.30234177        0.46030697
       39.83853       32.62375642        0.43287156
       39.93822       31.41907073        0.45006501
       40.03792       29.77728472        0.39976538
       40.13761       30.25710627        0.40419055
       40.23730       29.60113249        0.41440093
       40.33700       30.52140316        0.43372293
       40.43669       30.13742400        0.45052072
       40.53638       31.04827504        0.42506841
       40.63608       31.90410752        0.43895642
       40.73577       32.08712576        0.43781223
       40.83546       32.35860188        0.44360328
       40.93516       31.67244390        0.44729515
       41.03485       31.16884286        0.41849253
       41.13454       31.03161200        0.41823420
       41.23424       30.21241718        0.42250024
       41.33393       29.93597582        0.43943003
       41.43362       30.83757018        0.46038363
       41.53332       30.34624257        0.42648323
       41.63301       29.43880032        0.42800553
       41.73270       30.44842371        0.42580533
       41.83240       30.85725933        0.44168508
       41.93209       30.69217125        0.43760270
       42.03179       32.02472790        0.40806442
       42.13148       33.56730598        0.43910945
       42.23117       36.40090622        0.45773924
       42.33087       40.27637064        0.51557904
       42.43056       50.44948115        0.56653566
       42.53025       64.34442153        0.62087127
       42.62995       90.23235101        0.74384263
       42.72964      130.92689914        0.90780241
       42.82933      178.48978805        1.08835573
       42.92903      220.10589642        1.17478930
       43.02872      257.07125151        1.21190824
       43.12841      249.36641269        1.21459067
       43.22811      210.78832385        1.16399701
       43.32780      166.19327979        1.07823293
       43.42749      121.69138763        0.89669404
       43.52719       80.69711040        0.69762189
       43.62688       56.13184741        0.57695867
       43.72657       42.67314501        0.51386247
       43.82627       35.97335681        0.49296488
       43.92596       32.67930971        0.42450624
       44.02565       31.08670975        0.41076808
       44.12535       30.63583743        0.42237406
       44.22504       29.37788997        0.43055612
       44.32473       29.75800276        0.45723411
       44.42443       28.71297271        0.43123158
       44.52412       28.49009979        0.41697244
       44.62381       27.55261825        0.41629819
       44.72351       28.01991870        0.40604623
       44.82320       28.32268456        0.45669520
       44.92289       28.09972344        0.37853641
       45.02259       27.80018928        0.37967811
       45.12228       27.32832800        0.38960488
       45.22197       27.05354038        0.39713996
       45.32167       26.40784476        0.43422072
       45.42136       26.95232688        0.39978607
       45.52105       26.60919304        0.39353330
       45.62075       26.14137341        0.39487696
       45.72044       27.27769950        0.40222578
       45.82013       26.17703175        0.43015328
       45.91983       26.15771776        0.36679236
       46.01952       25.96839147        0.37502008
       46.11921       26.64994598        0.38067921
       46.21891       25.39639444        0.39019403
       46.31860       25.64687537        0.42380735
       46.41830       26.00251991        0.39417788
       46.51799       26.21681806        0.39648366
       46.61768       25.13474896        0.38613230
       46.71738       25.81535784        0.40216472
       46.81707       25.82084348        0.41752788
       46.91676       25.76447372        0.36496487
       47.01646       25.64689459        0.37383343
       47.11615       26.02121511        0.38435012
       47.21584       25.71699457        0.39376805
       47.31554       26.41740531        0.43351497
       47.41523       25.47155584        0.39876370
       47.51492       26.54865240        0.40896281
       47.61462       25.17201119        0.39636900
       47.71431       25.28431122        0.40192428
       47.81400       25.62631155        0.41587287
       47.91370       24.88564239        0.36004205
       48.01339       25.15824360        0.36119002
       48.11308       25.09906383        0.37293677
       48.21278       25.10958698        0.38815925
       48.31247       24.86645016        0.39837547
       48.41216       25.12253052        0.37462280
       48.51186       24.92882048        0.38592470
       48.61155       25.53437132        0.38872347
       48.71124       24.95695915        0.39205822
       48.81094       24.11314997        0.38296365
       48.91063       24.57493766        0.34548067
       49.01032       24.57613180        0.35585128
       49.11002       24.98182378        0.37238186
       49.20971       24.16744251        0.38567153
       49.30940       24.60223212        0.40202232
       49.40910       24.75617285        0.38377543
       49.50879       25.01448833        0.39328082
       49.60848       25.33400943        0.39970381
       49.70818       24.49385431        0.40822224
       49.80787       25.39034382        0.40327104
       49.90756       24.33217325        0.35795806
       50.00726       25.16990433        0.37254516
       50.10695       25.32360949        0.38282729
       50.20664       25.24141773        0.40063802
       50.30634       25.59514807        0.42240498
       50.40603       26.13492124        0.40011519
       50.50572       26.60675828        0.40389547
       50.60542       25.34416566        0.39450802
       50.70511       26.07710821        0.41113302
       50.80480       26.25361456        0.40465544
       50.90450       27.25609829        0.37373064
       51.00419       27.68972032        0.38172562
       51.10389       28.46496999        0.40002885
       51.20358       29.54728018        0.43433766
       51.30327       32.85959586        0.45557847
       51.40297       36.91001676        0.46253284
       51.50266       46.15791833        0.52138657
       51.60235       57.96178677        0.59694256
       51.70205       76.71324382        0.73362874
       51.80174       95.06463104        0.75599131
       51.90143      121.83446336        0.80476389
       52.00113      141.35090922        0.87279279
       52.10082      149.63676904        0.93029039
       52.20051      144.32389781        1.00211904
       52.30021      136.30122839        0.93384766
       52.39990      119.42041399        0.85414834
       52.49959       99.18488001        0.78993440
       52.59929       80.12759499        0.72042018
       52.69898       66.66100020        0.71965656
       52.79867       54.23505854        0.54673275
       52.89837       42.27960711        0.46393022
       52.99806       34.76043695        0.42649849
       53.09775       30.61665068        0.41155113
       53.19745       29.58205359        0.46251851
       53.29714       26.93303011        0.38972480
       53.39683       27.01790842        0.40656846
       53.49653       26.59838390        0.40678307
       53.59622       26.77510844        0.40818727
       53.69591       26.07797902        0.44277251
       53.79561       26.30993055        0.37204150
       53.89530       25.50175668        0.36118675
       53.99499       25.07594318        0.36435372
       54.09469       24.62450138        0.37868323
       54.19438       25.38217102        0.41893300
       54.29407       25.81522188        0.39034150
       54.39377       25.55081279        0.39139461
       54.49346       24.94192166        0.38742684
       54.59315       25.08016352        0.39461495
       54.69285       24.81642229        0.41830510
       54.79254       24.86190933        0.35857272
       54.89223       24.54755737        0.35306044
       54.99193       24.87906573        0.36651998
       55.09162       25.21306029        0.38550018
       55.19131       24.46779311        0.40904654
       55.29101       24.60494988        0.38177933
       55.39070       24.74753619        0.39458641
       55.49039       25.26996894        0.39623488
       55.59009       25.33804098        0.40898878
       55.68978       25.62271586        0.42116333
       55.78948       25.50544120        0.36660619
       55.88917       27.18839863        0.37943643
       55.98886       29.17449854        0.39704867
       56.08856       32.44683415        0.43322885
       56.18825       34.95109518        0.48620705
       56.28794       37.79198110        0.46191551
       56.38764       39.53456434        0.48788902
       56.48733       40.67924298        0.50092860
       56.58702       40.79607257        0.51553690
       56.68672       41.39021706        0.53627106
       56.78641       41.26228185        0.46245463
       56.88610       41.18687483        0.46673669
       56.98580       41.45976039        0.46864690
       57.08549       40.98269679        0.49443460
       57.18518       39.06286064        0.49999415
       57.28488       38.30799787        0.46009672
       57.38457       35.92649932        0.47163916
       57.48426       32.53762999        0.45809647
       57.58396       29.96886674        0.45180878
       57.68365       29.03468004        0.45053289
       57.78334       26.65735215        0.37742735
       57.88304       25.46523597        0.37309860
       57.98273       24.89732514        0.37427307
       58.08242       24.51192598        0.39993143
       58.18212       25.50711026        0.41624068
       58.28181       25.28722060        0.38881525
       58.38150       25.29358218        0.40968707
       58.48120       27.07903347        0.43466603
       58.58089       29.07727453        0.45665328
       58.68058       32.60827242        0.47349091
       58.78028       34.96867402        0.42790026
       58.87997       44.80381151        0.47623159
       58.97966       57.14979564        0.55771195
       59.07936       68.81906909        0.65362937
       59.17905       80.37759842        0.71829474
       59.27874       89.18442168        0.72165762
       59.37844       92.52954111        0.76040307
       59.47813       92.28517139        0.79093590
       59.57782       85.41929042        0.79314928
       59.67752       76.07025232        0.69483812
       59.77721       62.83678173        0.57829450
       59.87690       46.94217191        0.49406347
       59.97660       37.85705466        0.46441216
       60.07629       30.91156202        0.45479144
       60.17598       28.43254955        0.41799591
       60.27568       27.06474062        0.39579943
       60.37537       25.48059094        0.39077709
       60.47507       24.94804412        0.40180522
       60.57476       24.26688822        0.43491697
       60.67445       23.96668524        0.36983160
       60.77415       23.72595869        0.34937213
       60.87384       23.48317991        0.34304026
       60.97353       23.18128953        0.35998351
       61.07323       23.70780523        0.41040240
       61.17292       23.55041510        0.35352635
       61.27261       23.71925376        0.36656206
       61.37231       23.40678230        0.37664887
       61.47200       22.26354538        0.38215768
       61.57169       23.01018377        0.44182824
       61.67139       23.62593121        0.36568886
       61.77108       22.06391528        0.34616163
       61.87077       22.99940542        0.35097823
       61.97047       23.50744883        0.36781649
       62.07016       22.00909432        0.40278213
       62.16985       23.28577553        0.36300314
       62.26955       22.72762073        0.37219732
       62.36924       22.99154334        0.38693216
       62.46893       22.05103842        0.39332729
       62.56863       23.28296089        0.45478816
       62.66832       23.43127932        0.37040704
       62.76801       22.93420043        0.35700263
       62.86771       23.05793420        0.34957298
       62.96740       22.39561911        0.35384511
       63.06709       22.52620202        0.39542768
       63.16679       22.48498125        0.34850333
       63.26648       22.98074530        0.36398523
       63.36617       23.30974976        0.38253453
       63.46587       23.36491586        0.39656906
       63.56556       22.73715475        0.41668698
       63.66525       22.43009458        0.35002473
       63.76495       23.05080185        0.34450147
       63.86464       22.95056427        0.34162142
       63.96433       22.64065457        0.35465666
       64.06403       23.38654117        0.38481240
       64.16372       22.57760637        0.35141965
       64.26341       23.15276430        0.37322970
       64.36311       23.07299907        0.38022771
       64.46280       23.50520499        0.40522760
       64.56249       24.03253051        0.41610594
       64.66219       24.21471597        0.36489702
       64.76188       23.27061892        0.35231880
       64.86157       23.34426750        0.35102683
       64.96127       24.06886223        0.37508039
       65.06096       24.97573499        0.41499738
       65.16066       25.01332673        0.37669296
       65.26035       25.05630686        0.38466642
       65.36004       26.00791805        0.40786386
       65.45974       26.71825962        0.42663176
       65.55943       27.38380972        0.45127379
       65.65912       27.14647694        0.38902984
       65.75882       29.03984163        0.39876505
       65.85851       31.17735837        0.41373823
       65.95820       35.66730794        0.46662633
       66.05790       37.56782639        0.49529883
       66.15759       42.30138501        0.49970566
       66.25728       47.61292987        0.54613559
       66.35698       51.80752158        0.59211080
       66.45667       60.15739571        0.67780987
       66.55636       66.08166224        0.70804388
       66.65606       77.34603104        0.68196497
       66.75575      102.95123039        0.77792030
       66.85544      143.01511413        0.91715439
       66.95514      198.81653562        1.13604416
       67.05483      259.60796813        1.32010792
       67.15452      343.80858585        1.46582407
       67.25422      436.02045288        1.75594325
       67.35391      514.88675588        2.02277834
       67.45360      580.54540365        2.30188200
       67.55330      625.46771800        2.32429702
       67.65299      670.39281871        2.18858798
       67.75268      680.37786211        2.18113825
       67.85238      659.89168570        2.16196463
       67.95207      618.56010015        2.21919788
       68.05176      563.13214300        1.98349300
       68.15146      476.60245211        1.77343983
       68.25115      402.55500596        1.70761594
       68.35084      347.43826363        1.64943989
       68.45054      310.32598074        1.71392720
       68.55023      273.50866039        1.37674883
       68.64992      222.53749043        1.14101378
       68.74962      167.98045603        0.98939458
       68.84931      123.97835742        0.85395882
       68.94900       95.30778210        0.84140543
       69.04870       67.50477555        0.59216894
       69.14839       51.12732991        0.53256050
       69.24808       41.45999289        0.51613683
       69.34778       36.30734976        0.49744112
       69.44747       33.17824870        0.54898446
       69.54716       30.85151188        0.41236499
       69.64686       28.46969873        0.38964935
       69.74655       27.39694539        0.38414713
       69.84625       26.60403332        0.38739118
       69.94594       26.05123735        0.43261979
       70.04563       26.47222828        0.36198589
       70.14533       26.11540260        0.37520789
       70.24502       27.62665778        0.41227140
       70.34471       26.78050920        0.42896845
       70.44441       26.57299417        0.50184172
       70.54410       27.76311812        0.40116045
       70.64379       28.25868269        0.40222227
       70.74349       28.70993353        0.41143422
       70.84318       30.20528559        0.44207882
       70.94287       32.02387696        0.50267406
       71.04257       29.68380184        0.39924537
       71.14226       29.10924052        0.40950698
       71.24195       29.31370646        0.43159110
       71.34165       28.71600584        0.45089622
       71.44134       26.25176158        0.47964771
       71.54103       25.52307928        0.38480877
       71.64073       24.78085310        0.37190942
       71.74042       24.42810214        0.36522534
       71.84011       24.22695663        0.37717323
       71.93981       24.18241662        0.40983448
       72.03950       23.88939459        0.34344840
       72.13919       24.31951317        0.36108096
       72.23889       22.65956731        0.36206453
       72.33858       23.40570206        0.41009418
       72.43827       22.77470052        0.44462535
       72.53797       23.40884480        0.36725284
       72.63766       23.23744582        0.35905402
       72.73735       23.78542152        0.35423275
       72.83705       23.90484697        0.37406749
       72.93674       25.20893950        0.40771009
       73.03643       25.68858799        0.35586464
       73.13613       26.82949816        0.38197375
       73.23582       27.39532830        0.40695926
       73.33551       29.23775030        0.46598740
       73.43521       30.28435053        0.51516184
       73.53490       31.04776530        0.42059802
       73.63459       31.67712127        0.41786685
       73.73429       32.81731491        0.42212635
       73.83398       34.52404517        0.45852138
       73.93367       35.94450129        0.49194706
       74.03337       35.12944860        0.42839657
       74.13306       35.36975659        0.45281334
       74.23276       36.40236927        0.48039641
       74.33245       36.76406143        0.53067989
       74.43214       36.03436349        0.54262870
       74.53184       36.46785916        0.46336728
       74.63153       35.39192417        0.45285171
       74.73122       33.13389884        0.43471520
       74.83092       31.05588589        0.44473955
       74.93061       30.22601080        0.44419455
       75.03030       26.34935674        0.37371560
       75.13000       24.23006001        0.37046039
       75.22969       23.27834495        0.37835260
       75.32938       21.91318529        0.40200872
       75.42908       21.94457644        0.40742623
       75.52877       21.20473958        0.34729479
       75.62846       19.94767282        0.33449794
       75.72816       21.00633304        0.34349667
       75.82785       21.10491614        0.37301378
       75.92754       20.24956023        0.34542676
       76.02724       19.99894014        0.32023843
       76.12693       20.27350844        0.33541363
       76.22662       20.25842896        0.35376986
       76.32632       19.98790047        0.39676310
       76.42601       19.35537325        0.36532374
       76.52570       19.47979625        0.33703576
       76.62540       20.22163986        0.34309767
       76.72509       20.20703705        0.34006241
       76.82478       20.97635263        0.39987530
       76.92448       19.18297935        0.30378110
       77.02417       20.15469486        0.32210856
       77.12386       20.00862473        0.33645378
       77.22356       19.48687371        0.35217092
       77.32325       19.61735596        0.43208070
       77.42294       19.87534558        0.34816051
       77.52264       20.47944031        0.34687612
       77.62233       19.36665162        0.33556123
       77.72202       19.86532411        0.33910421
       77.82172       21.00559466        0.40747746
       77.92141       19.97284066        0.30453583
       78.02110       19.66150770        0.32525625
       78.12080       19.37616356        0.34246161
       78.22049       19.85419139        0.36872268
       78.32018       20.01084142        0.43115242
       78.41988       20.18871114        0.34232104
       78.51957       19.07019556        0.34269483
       78.61926       19.38598219        0.34319181
       78.71896       20.13599514        0.35046794
       78.81865       19.77789976        0.38698380
       78.91835       19.69814518        0.29778557
       79.01804       20.15186797        0.33165238
       79.11773       19.89999385        0.34531742
       79.21743       20.90121658        0.37838078
       79.31712       20.29348448        0.41976660
       79.41681       21.17842693        0.34585795
       79.51651       21.87119979        0.35775308
       79.61620       22.08345262        0.35980648
       79.71589       24.03478263        0.38898313
       79.81559       25.37437567        0.42245315
       79.91528       27.32798758        0.37268166
       80.01497       30.52092656        0.41062678
       80.11467       32.45096344        0.44121195
       80.21436       33.56214259        0.47889620
       80.31405       35.30003959        0.58330029
       80.41375       35.10932729        0.44510796
       80.51344       35.57177974        0.44594915
       80.61313       36.39364436        0.46328530
       80.71283       36.33338420        0.48106902
       80.81252       34.67455303        0.52939060
       80.91221       34.58142497        0.39445777
       81.01191       31.70195372        0.40457393
       81.11160       30.01709805        0.42392713
       81.21129       27.11181531        0.43482515
       81.31099       25.16396931        0.46636993
       81.41068       23.39409270        0.35004865
       81.51037       21.63670005        0.34519988
       81.61007       21.47622811        0.36326257
       81.70976       21.58430245        0.37746694
       81.80945       21.03648497        0.39628509
       81.90915       19.60613460        0.29134966
       82.00884       20.05683987        0.31541664
       82.10853       19.99823727        0.35092086
       82.20823       19.29795074        0.38127118
       82.30792       19.28422945        0.39851671
       82.40761       19.64516881        0.32874146
       82.50731       20.15442915        0.33691445
       82.60700       20.71848012        0.36586690
       82.70669       20.33584844        0.39468418
       82.80639       19.76861008        0.37082123
       82.90608       20.05432370        0.30269082
       83.00577       19.40073312        0.31486903
       83.10547       20.30096959        0.37831005
       83.20516       20.15188343        0.42227973
       83.30485       19.89732068        0.40092465
       83.40455       20.51574105        0.33977166
       83.50424       20.90086734        0.33291074
       83.60394       21.08010752        0.36812889
       83.70363       21.91864960        0.42200251
       83.80332       21.99795961        0.36995024
       83.90302       22.23789046        0.31092479
       84.00271       22.92787879        0.32864558
       84.10240       24.12851891        0.40823181
       84.20210       23.86288829        0.49311576
       84.30179       24.87021533        0.40951935
       84.40148       24.48214813        0.35684072
       84.50118       25.69668932        0.35912290
       84.60087       24.79550366        0.39751018
       84.70056       24.56032906        0.51452367
       84.80026       24.67642932        0.36034232
       84.89995       23.61800436        0.31814280
       84.99964       23.28232992        0.32877634
       85.09934       22.43199183        0.38022542
       85.19903       21.52297734        0.63763240
       85.29872       21.08078940        0.33197522
       85.39842       20.27006604        0.33080484
       85.49811       20.08797005        0.31992561
       85.59780       20.15630310        0.35899368
       85.69750       19.82235523        0.64032983
       85.79719       20.63691903        0.31208698
       85.89688       19.22282711        0.29408698
       85.99658       19.58506958        0.30389360
       86.09627       19.86291333        0.35074528
       86.19596       18.11364809        0.64611119
       86.29566       19.67182990        0.31703938
       86.39535       19.28689961        0.31721955
       86.49504       19.40276139        0.31314763
       86.59474       19.64266445        0.34063203
       86.69443       18.37692642        0.69010895
       86.79412       20.48812657        0.30342685
       86.89382       19.90500968        0.29126874
       86.99351       20.34391509        0.30576467
       87.09320       21.15601357        0.34583891
       87.19290       20.61025948        0.80972256
       87.29259       21.11807589        0.33001923
       87.39228       22.23555545        0.34693308
       87.49198       22.00038901        0.33809959
       87.59167       22.66415471        0.34736273
       87.69136       23.64495372        1.06152799
       87.79106       22.99175070        0.32456246
       87.89075       22.65479440        0.31955925
       87.99044       22.65620618        0.33077913
       88.09014       23.24057435        0.35584959
       88.18983       21.14810812        1.80590739
       88.28953       23.47359748        0.36431878
       88.38922       23.04819216        0.36445874
       88.48891       21.95083914        0.33956459
       88.58861       21.62766424        0.32533584
       88.68830       24.10284345        2.69254121
       88.78799       20.66227798        0.30674321
       88.88769       19.90146347        0.29250709
       88.98738       19.67669231        0.30358952
       89.08707       20.42460033        0.32017452
       89.18677       23.53271981        2.80228401
       89.28646       19.58704048        0.31761479
       89.38615       19.47149663        0.31780790
       89.48585       19.05030397        0.30837840
       89.58554       18.98934824        0.30038017
       89.68523       16.97132520        2.29412459
       89.78493       18.72563031        0.28807847
       89.88462       19.38166130        0.29057245
       89.98431       19.90169494        0.30392207
       90.08401       19.73224848        0.31128352
       90.18370       17.03834685        2.39298678
       90.28339       19.43573670        0.31509187
       90.38309       19.71515536        0.32227896
       90.48278       18.72540733        0.30698640
       90.58247       19.40672883        0.30752948
       90.68217       18.69325797        2.38246782
       90.78186       20.01348741        0.30295848
       90.88155       20.56938246        0.29951478
       90.98125       20.66241035        0.30855350
       91.08094       20.39911054        0.31637300
       91.18063       20.80738714        2.54753874
       91.28033       21.58469880        0.33448912
       91.38002       20.94696538        0.33654069
       91.47971       21.57473556        0.33333517
       91.57941       22.28669544        0.33253166
       91.67910       21.56334639        2.47754143
       91.77879       23.37590658        0.32625959
       91.87849       25.62029621        0.33464776
       91.97818       29.49938463        0.37315901
       92.07787       33.62141799        0.41359399
       92.17757       35.38119266        3.22307779
       92.27726       38.96423919        0.45904826
       92.37695       44.80197655        0.50877261
       92.47665       56.28646208        0.54919344
       92.57634       71.53022381        0.59753946
       92.67603       82.11817875        4.19224245
       92.77573       96.51252340        0.67189019
       92.87542      124.61834663        0.75159833
       92.97512      152.22245664        0.86921028
       93.07481      173.70344861        1.06275826
       93.17450      180.13838331        2.04386229
       93.27420      195.95009436        1.05686887
       93.37389      212.14970679        1.07300138
       93.47358      225.48045634        1.11491156
       93.57328      244.05734128        1.34724904
       93.67297      248.58717226        1.83492327
       93.77266      264.13217245        1.17504694
       93.87236      270.62031093        1.13020541
       93.97205      274.27668859        1.19879919
       94.07174      269.88187063        1.55451584
       94.17144      268.58386086        1.77147990
       94.27113      255.28163892        1.27414004
       94.37082      238.43181882        1.18935521
       94.47052      225.08448189        1.10696119
       94.57021      215.53358105        1.42626456
       94.66990      212.72936529        1.42901826
       94.76960      206.09460067        1.08703795
       94.86929      201.72881174        0.98743382
       94.96898      191.49535956        0.97461795
       95.06868      175.19158547        1.06628739
       95.16837      166.26412084        1.41549184
       95.26806      156.79186130        1.05965442
       95.36776      147.88183210        0.93083884
       95.46745      136.97530540        0.85841682
       95.56714      124.00796818        0.93411669
       95.66684      121.11041869        1.04390658
       95.76653      116.42933163        0.84982659
       95.86622      103.67026159        0.68091779
       95.96592       84.92816064        0.63299382
       96.06561       72.19552921        0.74573489
       96.16530       65.04914106        0.75026890
       96.26500       55.88481193        0.62379834
       96.36469       50.07164292        0.52596822
       96.46438       43.26445127        0.47497074
       96.56408       40.87475261        0.57627068
       96.66377       37.32695766        0.53450484
       96.76346       35.54198057        0.46448562
       96.86316       34.05887328        0.39221545
       96.96285       33.11625239        0.39889534
       97.06254       31.95258030        0.52792485
       97.16224       32.29089099        0.50791549
       97.26193       31.37235285        0.46810866
       97.36162       32.92820301        0.44894682
       97.46132       32.36589756        0.41342440
       97.56101       31.76639775        0.51717248
       97.66071       31.00704330        0.45713006
       97.76040       30.39266799        0.41133698
       97.86009       29.13331717        0.36288880
       97.95979       28.73333134        0.36623630
       98.05948       29.00728332        0.51465207
       98.15917       28.45459182        0.45515805
       98.25887       28.57840598        0.43832001
       98.35856       28.34705147        0.41032019
       98.45825       27.46433486        0.37542956
       98.55795       27.23781731        0.48779625
       98.65764       26.50291599        0.41225193
       98.75733       25.73993554        0.37769108
       98.85703       25.10813701        0.34767700
       98.95672       24.70868219        0.34614420
       99.05641       23.76238329        0.47325179
       99.15611       23.55858481        0.40418152
       99.25580       23.23165717        0.38707335
       99.35549       23.19604302        0.36750480
       99.45519       22.94397284        0.34028383
       99.55488       22.41494064        0.44888524
       99.65457       23.51481008        0.37876445
       99.75427       23.41068126        0.35389317
       99.85396       22.67081737        0.33546879
       99.95365       22.69362478        0.32898303
      100.05335       22.09960039        0.46009863
      100.15304       22.03636367        0.38585787
      100.25273       22.52940062        0.38564056
      100.35243       22.24859087        0.38037919
      100.45212       21.20180698        0.33861640
      100.55181       21.52738576        0.44915074
      100.65151       21.80564399        0.36969106
      100.75120       21.22967900        0.33957246
      100.85089       21.08435517        0.32268606
      100.95059       20.58280593        0.30966859
      101.05028       20.67053407        0.44270484
      101.14997       20.99060238        0.36759733
      101.24967       19.75770918        0.35132296
      101.34936       19.85352969        0.35370679
      101.44905       19.46657712        0.33215388
      101.54875       20.04874787        0.42365165
      101.64844       19.79438822        0.34247497
      101.74813       19.56484024        0.31930042
      101.84783       19.52536118        0.30916749
      101.94752       19.00413474        0.32127974
      102.04722       19.17388343        0.38782434
      102.14691       19.30216316        0.35028672
      102.24660       19.00933472        0.34473982
      102.34630       18.97406885        0.34702124
      102.44599       19.33228493        0.35540727
      102.54568       19.15899839        0.37034834
      102.64538       18.92482410        0.32815576
      102.74507       18.80633665        0.31069329
      102.84476       18.59590575        0.30262029
      102.94446       18.37795651        0.34118806
      103.04415       18.47771339        0.36542872
      103.14384       19.20325057        0.34915349
      103.24354       18.72739401        0.33998968
      103.34323       19.04380050        0.33947077
      103.44292       19.11898290        0.36805406
      103.54262       19.04246393        0.35652411
      103.64231       18.82144026        0.32178646
      103.74200       19.04094251        0.30818440
      103.84170       18.46696726        0.29754142
      103.94139       18.95618471        0.36616329
      104.04108       18.97325199        0.35478454
      104.14078       18.60188468        0.34024533
      104.24047       18.99570366        0.34296651
      104.34016       18.80690491        0.34270534
      104.43986       18.82499781        0.39047453
      104.53955       19.64687282        0.35970659
      104.63924       18.86393314        0.33046173
      104.73894       19.23253410        0.32070957
      104.83863       19.48493368        0.31335942
      104.93832       18.39054094        0.36855885
      105.03802       18.73691060        0.34920512
      105.13771       19.40407000        0.34196022
      105.23740       19.74265458        0.34363439
      105.33710       19.26208209        0.34014438
      105.43679       19.46130298        0.39804313
      105.53648       18.83275421        0.35221724
      105.63618       20.38405481        0.33716248
      105.73587       19.78560203        0.31773190
      105.83556       19.56756429        0.30720627
      105.93526       19.78677628        0.39076381
      106.03495       20.00559922        0.35584392
      106.13464       19.46912971        0.33876431
      106.23434       19.47015838        0.34075232
      106.33403       20.13544687        0.35031996
      106.43372       19.92879391        0.41682724
      106.53342       20.02868285        0.36404184
      106.63311       20.08300180        0.33145818
      106.73281       20.33180342        0.31675719
      106.83250       20.24588313        0.31062675
      106.93219       19.12313093        0.39058687
      107.03189       19.09644530        0.34587922
      107.13158       19.13175509        0.33531514
      107.23127       19.51038038        0.34494042
      107.33097       19.36008242        0.34375807
      107.43066       19.79159994        0.41878200
      107.53035       18.78248562        0.35057218
      107.63005       19.15216062        0.32214430
      107.72974       18.99296357        0.30735253
      107.82943       18.92678698        0.30248803
      107.92913       18.08374371        0.39076464
      108.02882       18.65079759        0.34794340
      108.12851       19.79157395        0.34270461
      108.22821       19.03755940        0.33130902
      108.32790       19.72849571        0.33297424
      108.42759       19.10483340        0.41542004
      108.52729       19.44970946        0.35543036
      108.62698       19.78547716        0.32409740
      108.72667       20.59487428        0.31699012
      108.82637       20.01440191        0.32011910
      108.92606       20.92527542        0.41675203
      109.02575       21.28943665        0.36778532
      109.12545       21.08132597        0.35640056
      109.22514       21.65948343        0.36035073
      109.32483       22.98008531        0.40375158
      109.42453       22.70163898        0.42302403
      109.52422       23.50283293        0.38835557
      109.62391       23.90264546        0.37211002
      109.72361       23.41315074        0.35260153
      109.82330       24.54211266        0.33972848
      109.92299       25.38387543        0.44940486
      110.02269       25.09789639        0.38961683
      110.12238       25.40159883        0.38911572
      110.22207       25.53824499        0.38680973
      110.32177       25.49593672        0.39398372
      110.42146       24.97057223        0.47247910
      110.52115       25.89121759        0.40941885
      110.62085       25.54552783        0.38483538
      110.72054       25.90609486        0.36389474
      110.82023       24.99081647        0.36778358
      110.91993       25.25488064        0.42956527
      111.01962       25.73464562        0.40068156
      111.11931       24.75682419        0.39475280
      111.21901       25.12916254        0.38978820
      111.31870       23.99550801        0.41242849
      111.41840       24.36846641        0.43272895
      111.51809       23.70989658        0.38935668
      111.61778       23.12304461        0.36199616
      111.71748       22.88873111        0.33379451
      111.81717       23.33017527        0.36478751
      111.91686       22.33807767        0.37509799
      112.01656       21.78144195        0.36159989
      112.11625       22.51454996        0.36997001
      112.21594       21.79921872        0.36324861
      112.31564       22.06891779        0.40514003
      112.41533       22.40905130        0.40088935
      112.51502       21.39600464        0.36003063
      112.61472       21.85398928        0.34674157
      112.71441       21.95054373        0.32725222
      112.81410       21.19105216        0.35938477
      112.91380       20.90632542        0.36317895
      113.01349       21.63254211        0.36244878
      113.11318       21.17790475        0.35885100
      113.21288       20.98188074        0.35659642
      113.31257       20.83068880        0.39261603
      113.41226       20.37062573        0.36818079
      113.51196       20.05228692        0.34342348
      113.61165       20.09181868        0.33176749
      113.71134       19.25602685        0.30926539
      113.81104       19.49365014        0.35656155
      113.91073       18.96307199        0.34280970
      114.01042       19.23038606        0.34232648
      114.11012       19.80897540        0.34690161
      114.20981       19.33444098        0.34414917
      114.30950       18.85528843        0.38506433
      114.40920       19.15342062        0.35828369
      114.50889       18.93581839        0.33346061
      114.60858       18.83262644        0.32249654
      114.70828       18.11420784        0.30555072
      114.80797       18.84374224        0.35524909
      114.90766       19.29088354        0.33833453
      115.00736       18.53819551        0.32938008
      115.10705       18.07332835        0.32622504
      115.20674       17.75550316        0.32837049
      115.30644       18.29774753        0.38189076
      115.40613       18.22170034        0.34562339
      115.50582       18.73754092        0.33163398
      115.60552       18.57241606        0.31967061
      115.70521       19.07001034        0.31185767
      115.80490       18.85642311        0.36081772
      115.90460       18.55582469        0.32376220
      116.00429       18.33837646        0.32563139
      116.10399       18.25333947        0.32695439
      116.20368       18.72184266        0.33850182
      116.30337       18.54489394        0.40242281
      116.40307       18.72550714        0.35351869
      116.50276       19.42420210        0.34111900
      116.60245       19.36601596        0.32743965
      116.70215       19.76135722        0.31873669
      116.80184       18.69715442        0.36771136
      116.90153       19.05341137        0.33415225
      117.00123       19.00597365        0.33077026
      117.10092       18.51384790        0.33499821
      117.20061       19.37203632        0.34795363
      117.30031       20.10794950        0.42630688
      117.40000       19.55312947        0.35210903
      117.49969       19.44546106        0.33329217
      117.59939       19.91631901        0.32188898
      117.69908       19.44669638        0.30787909
      117.79877       19.91306977        0.38207578
      117.89847       21.10606427        0.34163230
      117.99816       22.23317006        0.35582620
      118.09785       23.31049716        0.37327228
      118.19755       23.62087633        0.39255056
      118.29724       25.70718437        0.44653257
      118.39693       26.33244125        0.41229063
      118.49663       27.58882802        0.39701022
      118.59632       29.07158609        0.39231636
      118.69601       32.25469991        0.43213710
      118.79571       34.42303898        0.48314743
      118.89540       37.66558187        0.47271726
      118.99509       42.75119811        0.50420560
      119.09479       48.81115249        0.54355783
      119.19448       55.44932033        0.63175104
      119.29417       58.72173728        0.67641385
      119.39387       67.17912449        0.66699522
      119.49356       77.60254324        0.67560079
      119.59325       87.64197624        0.69992588
      119.69295      100.23339093        0.79373531
      119.79264      110.80667275        0.84692080
      119.89233      124.11824688        0.87076128
      119.99203      134.68704156        0.88734581
      120.09172      148.15154628        0.95185526
      120.19141      155.83749227        1.09678226
      120.29111      166.11847241        1.12091231
      120.39080      174.77141870        1.10009586
      120.49049      184.65369830        1.05677430
      120.59019      195.84127472        1.05966095
      120.68988      205.85403235        1.17294494
      120.78958      211.71980261        1.16276604
      120.88927      221.31818599        1.17117091
      120.98896      228.05212069        1.17785535
      121.08866      232.11627257        1.19422764
      121.18835      240.44724403        1.39867425
      121.28804      242.86599811        1.37069416
      121.38774      249.23241688        1.31861073
      121.48743      253.31019197        1.25950941
      121.58712      255.30498683        1.20587955
      121.68682      251.29162320        1.31662399
      121.78651      250.03897466        1.25291892
      121.88620      246.52585980        1.22787074
      121.98590      236.38709568        1.20747953
      122.08559      230.12562698        1.21320049
      122.18528      224.85602856        1.39883692
      122.28498      216.59176591        1.28723554
      122.38467      208.42485701        1.20611255
      122.48436      196.90388737        1.10603460
      122.58406      182.39421823        1.00443002
      122.68375      172.14729201        1.10288118
      122.78344      162.50118643        1.00425026
      122.88314      151.04794893        0.95933803
      122.98283      142.13049344        0.94912982
      123.08252      132.65463058        0.91209989
      123.18222      123.53461046        1.02317939
      123.28191      117.32610364        0.90247497
      123.38160      109.39232492        0.83999394
      123.48130      100.93307592        0.77534813
      123.58099       91.83665085        0.68953041
      123.68068       85.05256640        0.75594163
      123.78038       79.33461738        0.65846153
      123.88007       73.63868283        0.62213320
      123.97976       66.65362794        0.60062528
      124.07946       59.88664209        0.56201742
      124.17915       55.82935556        0.61050335
      124.27884       52.35976576        0.52895154
      124.37854       48.04929497        0.47619660
      124.47823       44.21616487        0.44672795
      124.57792       40.22134972        0.45363418
