        5.04553       35.93309309        0.94783315
        5.14523       35.52393034        0.90164332
        5.24492       33.87009965        0.86797284
        5.34461       35.01727400        0.81267867
        5.44431       34.68244753        0.88455237
        5.54400       34.09734029        0.73094890
        5.64369       35.04918724        0.74489394
        5.74339       34.84011218        0.66561205
        5.84308       34.64635869        0.67177395
        5.94277       34.88565980        0.67238181
        6.04247       34.49403476        0.64849137
        6.14216       35.56093850        0.60628106
        6.24185       33.94762440        0.61022872
        6.34155       34.38618242        0.58601505
        6.44124       33.61791957        0.61074332
        6.54093       34.78446893        0.58919729
        6.64063       35.12935980        0.56127483
        6.74032       35.18954013        0.56177323
        6.84001       34.07534293        0.54953551
        6.93971       35.10495321        0.56272995
        7.03940       35.16127005        0.52463900
        7.13909       34.73341592        0.51906896
        7.23879       34.76682814        0.51198044
        7.33848       35.06522104        0.52213682
        7.43817       35.03812048        0.51091794
        7.53787       35.30844462        0.50628117
        7.63756       35.16514213        0.48185086
        7.73725       35.42875947        0.50289030
        7.83695       35.17894141        0.48476711
        7.93664       35.24535993        0.50619843
        8.03633       34.61137900        0.45159697
        8.13603       35.82246342        0.45418257
        8.23572       34.67732029        0.45554055
        8.33541       35.35706620        0.45547738
        8.43511       35.01519088        0.47955587
        8.53480       34.47529928        0.44086073
        8.63449       36.10943033        0.44717234
        8.73419       36.36487551        0.43814722
        8.83388       35.62185101        0.43602462
        8.93357       35.70341684        0.43555850
        9.03327       36.62777168        0.42973621
        9.13296       35.20782235        0.41902084
        9.23265       36.30112983        0.43084936
        9.33235       35.72361487        0.43990791
        9.43204       35.76752210        0.43847296
        9.53174       36.02267449        0.42287001
        9.63143       36.19833227        0.43813146
        9.73112       36.93453331        0.44268954
        9.83082       36.25944225        0.45759789
        9.93051       36.42947100        0.45186219
       10.03020       36.05390277        0.43449566
       10.12990       37.39275768        0.43202821
       10.22959       37.30832417        0.44904900
       10.32928       37.17704099        0.46699277
       10.42898       37.21988568        0.46124320
       10.52867       37.46843289        0.44762632
       10.62836       37.79109899        0.44947770
       10.72806       37.24703166        0.45172777
       10.82775       37.40805976        0.45159838
       10.92744       38.36890808        0.46425397
       11.02714       38.93498965        0.44675865
       11.12683       38.18635583        0.45724901
       11.22652       37.81521750        0.46031534
       11.32622       37.98881792        0.47356665
       11.42591       38.65403280        0.46101266
       11.52560       39.34890828        0.45997150
       11.62530       38.11886314        0.45663670
       11.72499       38.65665696        0.46821484
       11.82468       39.39010293        0.48548437
       11.92438       40.08852493        0.46544061
       12.02407       39.71847019        0.45805440
       12.12376       39.50622958        0.45955646
       12.22346       39.31666995        0.48643933
       12.32315       40.07268889        0.49596075
       12.42284       39.55789602        0.46977776
       12.52254       40.95716600        0.47435832
       12.62223       41.02398532        0.48790473
       12.72192       40.42882841        0.47050609
       12.82162       42.33170218        0.52030907
       12.92131       41.55140330        0.47317279
       13.02100       42.74820127        0.47442509
       13.12070       42.10028324        0.47851272
       13.22039       42.74485147        0.49634094
       13.32008       42.97712453        0.51664174
       13.41978       43.34556955        0.49327010
       13.51947       43.96852315        0.50608763
       13.61916       44.13797348        0.48958066
       13.71886       44.86924703        0.51772186
       13.81855       44.51446600        0.52340978
       13.91824       45.88212094        0.50025432
       14.01794       46.85563614        0.49462349
       14.11763       47.36110859        0.51506197
       14.21733       48.27639359        0.52268239
       14.31702       48.92482376        0.55271788
       14.41671       49.96307816        0.54185213
       14.51641       49.32616908        0.52349627
       14.61610       50.73296702        0.53368271
       14.71579       53.05443088        0.55598800
       14.81549       54.47989437        0.59113839
       14.91518       55.58055949        0.54604857
       15.01487       60.21080590        0.57918261
       15.11457       65.01878412        0.60965641
       15.21426       72.03908400        0.66211945
       15.31395       78.51742355        0.71034621
       15.41365       84.99207791        0.71607799
       15.51334      104.25718868        0.77222622
       15.61303      122.02738622        0.86337112
       15.71273      147.56958175        0.93751919
       15.81242      169.59772226        1.05856952
       15.91211      183.73269860        1.06581924
       16.01181      228.79405538        1.15325312
       16.11150      279.18984473        1.32503917
       16.21119      349.16676384        1.54463822
       16.31089      430.73891611        1.74401559
       16.41058      508.08357958        1.88090321
       16.51027      640.75566515        2.19945046
       16.60997      835.76326557        2.50147656
       16.70966     1047.45104706        2.96340891
       16.80935     1187.96271154        3.25946125
       16.90905     1382.65720414        3.50392922
       17.00874     1246.49200912        3.12814376
       17.10843      999.76912576        2.86526593
       17.20813      784.64238530        2.47266270
       17.30782      595.49229906        2.10474883
       17.40751      408.58512412        1.68563632
       17.50721      305.80799193        1.38595602
       17.60690      222.45112353        1.20184417
       17.70659      168.67154451        1.04033500
       17.80629      126.35165921        0.90336020
       17.90598       97.33371836        0.73745624
       18.00567       79.47290576        0.67592015
       18.10537       70.28053756        0.61722241
       18.20506       62.95048518        0.63893918
       18.30475       60.31775746        0.59628253
       18.40445       57.51959809        0.56627645
       18.50414       54.54427093        0.56915864
       18.60384       54.57789559        0.56025498
       18.70353       52.39850550        0.58046242
       18.80322       51.28499905        0.54015460
       18.90292       50.11276818        0.52846980
       19.00261       48.79745145        0.50550459
       19.10230       47.81007852        0.53317733
       19.20200       46.58728728        0.53845721
       19.30169       45.16571209        0.51100143
       19.40138       46.02592311        0.51121999
       19.50108       45.64832275        0.52067555
       19.60077       43.85196585        0.50505078
       19.70046       43.80023458        0.52900463
       19.80016       42.80401418        0.49510489
       19.89985       43.69671725        0.48570996
       19.99954       41.40159136        0.47727029
       20.09924       41.81072333        0.48554284
       20.19893       40.95801591        0.51365480
       20.29862       41.28344225        0.48851511
       20.39832       40.92103612        0.50188412
       20.49801       39.84779972        0.48569273
       20.59770       39.43480170        0.49299178
       20.69740       38.82654114        0.50645666
       20.79709       37.75223953        0.47546395
       20.89678       37.47202234        0.46171120
       20.99648       37.13416629        0.46712266
       21.09617       37.58422205        0.49070430
       21.19586       36.86989340        0.48571904
       21.29556       36.18213074        0.47011946
       21.39525       35.60954095        0.46703318
       21.49494       35.92754198        0.46094676
       21.59464       36.44121717        0.47436562
       21.69433       35.13041741        0.48482410
       21.79402       35.25438888        0.44339817
       21.89372       35.32531532        0.43483762
       21.99341       35.26337661        0.45286523
       22.09310       34.78015788        0.45162497
       22.19280       34.50654299        0.47703105
       22.29249       34.39393052        0.44440996
       22.39218       34.59475014        0.45550791
       22.49188       33.82497657        0.45088033
       22.59157       34.85612044        0.46373107
       22.69126       34.20656586        0.48269623
       22.79096       33.99395404        0.43473829
       22.89065       34.43667460        0.42758548
       22.99034       33.37150508        0.43241178
       23.09004       33.99759877        0.45589728
       23.18973       34.62105814        0.45931173
       23.28943       33.28954686        0.44366072
       23.38912       34.05011357        0.45329092
       23.48881       34.02237945        0.45538968
       23.58851       34.77551730        0.46633021
       23.68820       33.84415896        0.48436762
       23.78789       33.80786915        0.43103239
       23.88759       34.02339963        0.43859313
       23.98728       33.58502723        0.44464398
       24.08697       33.30839151        0.43416387
       24.18667       32.99418105        0.46338031
       24.28636       32.58008581        0.43676055
       24.38605       32.92529470        0.44864416
       24.48575       32.21985214        0.44307518
       24.58544       32.27818775        0.45696748
       24.68513       33.11898946        0.46307422
       24.78483       32.18151872        0.42059646
       24.88452       32.39718729        0.42101339
       24.98421       31.75245747        0.43105402
       25.08391       32.14428680        0.44275823
       25.18360       31.70889081        0.44920651
       25.28329       32.80181484        0.44051135
       25.38299       32.25666320        0.43546175
       25.48268       31.85681990        0.43528800
       25.58237       32.76623822        0.45940083
       25.68207       32.53484772        0.44853755
       25.78176       31.87662979        0.41727090
       25.88145       31.59386470        0.42645819
       25.98115       31.50426342        0.43041623
       26.08084       32.05588489        0.44494931
       26.18053       32.50668068        0.46038714
       26.28023       32.68233401        0.43688050
       26.37992       32.28918560        0.43449714
       26.47961       32.50036726        0.45025648
       26.57931       31.34140676        0.46129942
       26.67900       31.83925575        0.43514612
       26.77869       32.12259157        0.43400416
       26.87839       31.52664638        0.42526952
       26.97808       32.75380169        0.43080870
       27.07777       32.28138084        0.46073663
       27.17747       32.86034998        0.44384034
       27.27716       31.54165382        0.42374180
       27.37685       31.70020932        0.44142924
       27.47655       32.76729785        0.44190840
       27.57624       32.07368755        0.45670596
       27.67593       32.04454494        0.44705989
       27.77563       32.46776593        0.43086105
       27.87532       32.46901292        0.42370023
       27.97502       32.03957032        0.42929891
       28.07471       32.26536732        0.45659024
       28.17440       33.43136748        0.44466598
       28.27410       33.03875326        0.44108229
       28.37379       32.76451907        0.44977187
       28.47348       33.09864411        0.44914996
       28.57318       32.79936336        0.48432698
       28.67287       32.75011061        0.43148937
       28.77256       32.82453484        0.42404542
       28.87226       32.22409912        0.43042375
       28.97195       32.41220996        0.43332961
       29.07164       32.71059374        0.47387964
       29.17134       32.61587406        0.43106573
       29.27103       32.82874347        0.43946981
       29.37072       33.52866059        0.46248745
       29.47042       33.39761912        0.45492289
       29.57011       33.50611980        0.48222355
       29.66980       33.20584675        0.43771595
       29.76950       33.74816645        0.44108335
       29.86919       34.19148541        0.43512790
       29.96888       33.93775503        0.45330311
       30.06858       34.57616125        0.47249108
       30.16827       34.91763028        0.44922412
       30.26796       35.60168968        0.45417293
       30.36766       35.99605625        0.46603463
       30.46735       36.21015187        0.47146209
       30.56704       36.48032078        0.49793990
       30.66674       37.72226044        0.47280462
       30.76643       38.03525486        0.46356306
       30.86612       38.65108996        0.47701032
       30.96582       39.78576022        0.48758995
       31.06551       41.50358102        0.52245118
       31.16520       43.44853979        0.50276929
       31.26490       47.66551163        0.52286312
       31.36459       55.69037263        0.57413100
       31.46428       71.64013896        0.68089996
       31.56398       92.79510049        0.78720825
       31.66367      113.96275335        0.81895954
       31.76336      161.95644607        0.98626221
       31.86306      247.53898076        1.22738066
       31.96275      355.49589225        1.53379267
       32.06244      429.71601131        1.76868107
       32.16214      496.52077807        1.80730179
       32.26183      470.48132890        1.79423815
       32.36152      387.96946370        1.66404550
       32.46122      291.38656775        1.43715431
       32.56091      215.91386027        1.24312043
       32.66061      140.01605192        0.93844256
       32.76030      103.47539793        0.78415882
       32.85999       92.92931738        0.75309278
       32.95969      103.62827097        0.80506605
       33.05938      136.41764802        0.94613520
       33.15907      187.49649157        1.05664630
       33.25877      291.46321930        1.38403957
       33.35846      454.14451228        1.78906766
       33.45815      660.13476660        2.32394535
       33.55785      837.17804604        2.70064983
       33.65754     1052.99648338        2.92196252
       33.75723     1137.62281150        3.07839254
       33.85693     1024.84096296        2.88324575
       33.95662      865.05553199        2.65747830
       34.05631      713.15046658        2.33582094
       34.15601      572.04845566        2.00287193
       34.25570      463.04001056        1.77027648
       34.35539      363.62119270        1.57933196
       34.45509      273.24759462        1.42310052
       34.55478      196.85444959        1.12157984
       34.65447      124.18487187        0.84477507
       34.75417       84.58810918        0.70353499
       34.85386       64.90507105        0.60652005
       34.95355       55.78580575        0.57942807
       35.05325       49.53526229        0.56393604
       35.15294       47.60289198        0.52143910
       35.25263       44.91066269        0.51506317
       35.35233       43.13303911        0.51920698
       35.45202       43.12243553        0.54226370
       35.55171       41.34773879        0.51745405
       35.65141       39.91935238        0.49083269
       35.75110       38.81044912        0.47962921
       35.85079       37.41122111        0.46861236
       35.95049       37.32752654        0.47984881
       36.05018       36.07269201        0.46393920
       36.14987       35.62290860        0.44301509
       36.24957       35.00347919        0.45838298
       36.34926       34.43844405        0.46341924
       36.44895       33.02112777        0.46187050
       36.54865       32.95132536        0.44366820
       36.64834       33.88294566        0.44035360
       36.74803       32.47605263        0.43703783
       36.84773       32.92741730        0.43758794
       36.94742       32.22241434        0.46880135
       37.04711       31.31605164        0.40687182
       37.14681       30.92932047        0.41323793
       37.24650       31.79716103        0.42970804
       37.34620       31.00128912        0.43545982
       37.44589       30.29231033        0.46048754
       37.54558       30.85735011        0.42380422
       37.64528       30.72659075        0.42324065
       37.74497       29.95230332        0.41088343
       37.84466       29.71558989        0.43337943
       37.94436       29.93412340        0.44368378
       38.04405       29.80789618        0.40046575
       38.14374       30.06709529        0.40571192
       38.24344       30.07597758        0.41199314
       38.34313       30.88235079        0.43570388
       38.44282       30.59823026        0.46927452
       38.54252       31.96171010        0.42991980
       38.64221       31.60353257        0.42708392
       38.74190       33.91656121        0.44701803
       38.84160       38.38462284        0.47723258
       38.94129       42.30392088        0.52614234
       39.04098       49.18330569        0.51053731
       39.14068       58.09485264        0.57731645
       39.24037       62.72501988        0.60016243
       39.34006       61.18833629        0.61515099
       39.43976       58.25386913        0.65344368
       39.53945       51.50334109        0.54947961
       39.63914       41.88640094        0.49286144
       39.73884       36.48592842        0.46127489
       39.83853       32.03802247        0.42871722
       39.93822       31.96578400        0.45380690
       40.03792       28.89331345        0.39353159
       40.13761       30.14243903        0.40322799
       40.23730       29.92896648        0.41652592
       40.33700       30.42313306        0.43281534
       40.43669       30.21403264        0.45089210
       40.53638       31.25645801        0.42631312
       40.63608       31.27607359        0.43435643
       40.73577       31.35422746        0.43251679
       40.83546       30.93260923        0.43338810
       40.93516       31.06688507        0.44273753
       41.03485       32.29829581        0.42591258
       41.13454       30.69721841        0.41575339
       41.23424       29.98202631        0.42067151
       41.33393       30.40973718        0.44273351
       41.43362       30.53853951        0.45790572
       41.53332       30.38503894        0.42656235
       41.63301       30.12945035        0.43286039
       41.73270       30.37701875        0.42510309
       41.83240       30.73446053        0.44059055
       41.93209       31.12556950        0.44051856
       42.03179       32.19015761        0.40894268
       42.13148       33.38196551        0.43767659
       42.23117       36.29844698        0.45687432
       42.33087       41.09423122        0.52063780
       42.43056       51.20991291        0.57061923
       42.53025       64.53152929        0.62151473
       42.62995       91.06174747        0.74704489
       42.72964      130.95517874        0.90750379
       42.82933      180.32841519        1.09387192
       42.92903      223.62300567        1.18444698
       43.02872      257.55811376        1.21265841
       43.12841      249.33451507        1.21399256
       43.22811      210.42022679        1.16239754
       43.32780      163.54738210        1.06858282
       43.42749      120.38255095        0.89122504
       43.52719       81.37900646        0.70034550
       43.62688       54.77750148        0.56953418
       43.72657       43.63000424        0.51945771
       43.82627       37.35794987        0.50227767
       43.92596       33.17167266        0.42753950
       44.02565       30.93808877        0.40958310
       44.12535       29.41381688        0.41356654
       44.22504       29.55335694        0.43165668
       44.32473       30.06658874        0.45941657
       44.42443       28.39533217        0.42861284
       44.52412       28.47451953        0.41666454
       44.62381       28.37205163        0.42232142
       44.72351       27.91040217        0.40505536
       44.82320       28.07862400        0.45448976
       44.92289       27.12263537        0.37164826
       45.02259       27.09332633        0.37459087
       45.12228       27.44011338        0.39022976
       45.22197       26.64711284        0.39392950
       45.32167       27.13710087        0.44003992
       45.42136       26.48128071        0.39605450
       45.52105       27.74525628        0.40175724
       45.62075       25.77748888        0.39190753
       45.72044       25.91633949        0.39176617
       45.82013       25.90134997        0.42765945
       45.91983       25.89867846        0.36478295
       46.01952       26.07192348        0.37560144
       46.11921       25.69022405        0.37351314
       46.21891       26.08931104        0.39535641
       46.31860       26.14585361        0.42775760
       46.41830       26.17686439        0.39532890
       46.51799       25.63728426        0.39184761
       46.61768       25.25871502        0.38691450
       46.71738       26.39824127        0.40654179
       46.81707       25.62058816        0.41569573
       46.91676       25.50265905        0.36291776
       47.01646       26.14214450        0.37729068
       47.11615       26.52300413        0.38790014
       47.21584       26.28808308        0.39798026
       47.31554       25.83913738        0.42849331
       47.41523       25.71970624        0.40053720
       47.51492       25.64572401        0.40168556
       47.61462       26.56692359        0.40713536
       47.71431       25.57069463        0.40403168
       47.81400       24.98405626        0.41038271
       47.91370       25.82536061        0.36668029
       48.01339       25.23126992        0.36155217
       48.11308       24.51513148        0.36835698
       48.21278       24.78023054        0.38539992
       48.31247       24.99113986        0.39919886
       48.41216       24.57774011        0.37032451
       48.51186       25.73914096        0.39203280
       48.61155       24.67530709        0.38188231
       48.71124       24.53642624        0.38852661
       48.81094       24.63007275        0.38691008
       48.91063       25.13903069        0.34930339
       49.01032       25.06866219        0.35927066
       49.11002       24.97963707        0.37219317
       49.20971       25.00701859        0.39220174
       49.30940       25.04499796        0.40547421
       49.40910       25.26581004        0.38756809
       49.50879       24.75918287        0.39106659
       49.60848       24.65338842        0.39405888
       49.70818       24.93112984        0.41169765
       49.80787       25.19024988        0.40147611
       49.90756       24.62487292        0.35996036
       50.00726       25.17304135        0.37239633
       50.10695       25.51953752        0.38414363
       50.20664       24.89683784        0.39768095
       50.30634       25.22172045        0.41908522
       50.40603       25.53721149        0.39528049
       50.50572       25.14973338        0.39237819
       50.60542       26.61720708        0.40421678
       50.70511       26.25294477        0.41234148
       50.80480       26.44977830        0.40599352
       50.90450       26.89539974        0.37104961
       51.00419       27.59389492        0.38088077
       51.10389       28.58298239        0.40068212
       51.20358       30.84382527        0.44368159
       51.30327       32.98255435        0.45623151
       51.40297       37.74599591        0.46760867
       51.50266       45.69934530        0.51850239
       51.60235       58.63867577        0.60022909
       51.70205       76.21164094        0.73081936
       51.80174       95.61706549        0.75793034
       51.90143      121.54652590        0.80340815
       52.00113      140.88476438        0.87088639
       52.10082      150.75046109        0.93354492
       52.20051      145.37239335        1.00552245
       52.30021      137.39605227        0.93738422
       52.39990      120.06469879        0.85618088
       52.49959       98.55493576        0.78696692
       52.59929       80.22558712        0.72054941
       52.69898       66.27514779        0.71718700
       52.79867       54.52251299        0.54796227
       52.89837       41.41080290        0.45884412
       52.99806       33.85208919        0.42061453
       53.09775       30.28389430        0.40909092
       53.19745       28.91391854        0.45698983
       53.29714       26.82539813        0.38875670
       53.39683       26.93406678        0.40574236
       53.49653       26.26183563        0.40398577
       53.59622       26.31911955        0.40447048
       53.69591       26.55276006        0.44662331
       53.79561       26.52782964        0.37342351
       53.89530       25.31361607        0.35967122
       53.99499       25.10107986        0.36436964
       54.09469       25.13471853        0.38245065
       54.19438       25.38249305        0.41874197
       54.29407       25.63301899        0.38876672
       54.39377       25.00838059        0.38699423
       54.49346       24.88116663        0.38677075
       54.59315       24.92394910        0.39318914
       54.69285       25.28621350        0.42209266
       54.79254       24.54679838        0.35610455
       54.89223       25.02044769        0.35631577
       54.99193       24.52936055        0.36373964
       55.09162       25.50834275        0.38759594
       55.19131       24.71028110        0.41089944
       55.29101       24.64274203        0.38189875
       55.39070       24.44459284        0.39195727
       55.49039       24.69233105        0.39145095
       55.59009       25.40240369        0.40932412
       55.68978       26.47960139        0.42802751
       55.78948       25.98155565        0.36987835
       55.88917       26.84775474        0.37685055
       55.98886       29.00768226        0.39571516
       56.08856       32.24789391        0.43168143
       56.18825       34.28437278        0.48125781
       56.28794       37.59760997        0.46049532
       56.38764       39.10771273        0.48498136
       56.48733       40.87446272        0.50191908
       56.58702       42.00746300        0.52302804
       56.68672       40.89930076        0.53278140
       56.78641       42.30345509        0.46814034
       56.88610       41.54822907        0.46860000
       56.98580       39.76786773        0.45861082
       57.08549       40.76906800        0.49289555
       57.18518       39.10705539        0.50005157
       57.28488       38.32890497        0.46001264
       57.38457       34.87161145        0.46434606
       57.48426       32.92507591        0.46064108
       57.58396       29.86393876        0.45079899
       57.68365       28.23300371        0.44398908
       57.78334       26.57137031        0.37663717
       57.88304       24.78966699        0.36789347
       57.98273       25.49546951        0.37861506
       58.08242       24.84469736        0.40247913
       58.18212       24.11004216        0.40437418
       58.28181       24.98669574        0.38629459
       58.38150       26.02399173        0.41543241
       58.48120       27.01437511        0.43394023
       58.58089       28.42455382        0.45122798
       58.68058       30.78222795        0.45965281
       58.78028       35.46658227        0.43078267
       58.87997       44.86375727        0.47633751
       58.97966       57.00650303        0.55674150
       59.07936       68.41288867        0.65134664
       59.17905       81.13403510        0.72145365
       59.27874       87.29919719        0.71339038
       59.37844       92.68739408        0.76073396
       59.47813       91.09707023        0.78528237
       59.57782       85.43338224        0.79285932
       59.67752       78.10921118        0.70406752
       59.77721       63.58643758        0.58155998
       59.87690       47.02126590        0.49426115
       59.97660       37.41683129        0.46144884
       60.07629       31.53282623        0.45918733
       60.17598       28.94866140        0.42162388
       60.27568       26.63599034        0.39243478
       60.37537       25.15170540        0.38804039
       60.47507       24.68156766        0.39944617
       60.57476       24.63650939        0.43804827
       60.67445       23.36109471        0.36491344
       60.77415       24.00471352        0.35127667
       60.87384       23.75852482        0.34490597
       60.97353       24.08899507        0.36686451
       61.07323       23.63177338        0.40954758
       61.17292       23.53252122        0.35322714
       61.27261       23.05816010        0.36119974
       61.37231       23.49858239        0.37721944
       61.47200       22.60935804        0.38496414
       61.57169       23.53946850        0.44672415
       61.67139       23.04859602        0.36098180
       61.77108       23.02319221        0.35351483
       61.87077       22.84581998        0.34963108
       61.97047       22.78206563        0.36187380
       62.07016       23.15685426        0.41306033
       62.16985       22.88145002        0.35964043
       62.26955       23.11853924        0.37524194
       62.36924       22.35151902        0.38128020
       62.46893       22.42342994        0.39648225
       62.56863       22.23922586        0.44417353
       62.66832       23.15710771        0.36804176
       62.76801       22.65933974        0.35467195
       62.86771       22.87647151        0.34802015
       62.96740       22.68398245        0.35597276
       63.06709       22.90444716        0.39858112
       63.16679       22.44312281        0.34801450
       63.26648       22.64775365        0.36114576
       63.36617       22.20347685        0.37308635
       63.46587       22.80550764        0.39156514
       63.56556       22.67235951        0.41589449
       63.66525       23.27521800        0.35645671
       63.76495       23.33520198        0.34648065
       63.86464       22.89782933        0.34106695
       63.96433       23.09758401        0.35808646
       64.06403       23.03064252        0.38166758
       64.16372       23.56966226        0.35896661
       64.26341       23.21729070        0.37358156
       64.36311       23.67189694        0.38500145
       64.46280       23.45196243        0.40457651
       64.56249       23.06974328        0.40741394
       64.66219       23.71455316        0.36090349
       64.76188       23.61578350        0.35478379
       64.86157       24.07308054        0.35635438
       64.96127       24.32311185        0.37690211
       65.06096       25.00798851        0.41507604
       65.16066       26.07206888        0.38449089
       65.26035       24.87967691        0.38311659
       65.36004       25.38332788        0.40269703
       65.45974       26.07041548        0.42117513
       65.55943       27.39071461        0.45112282
       65.65912       27.88825281        0.39418883
       65.75882       29.28823695        0.40030300
       65.85851       31.43548307        0.41527844
       65.95820       34.15565764        0.45627518
       66.05790       38.67465361        0.50242815
       66.15759       42.63642759        0.50148570
       66.25728       46.76134728        0.54088494
       66.35698       51.79659596        0.59177627
       66.45667       58.63179443        0.66864194
       66.55636       66.53519904        0.71021360
       66.65606       79.03440292        0.68929731
       66.75575      103.09016595        0.77811871
       66.85544      143.82911985        0.91950671
       66.95514      199.10097235        1.13643060
       67.05483      259.79802867        1.32008388
       67.15452      343.26299802        1.46391463
       67.25422      434.89786672        1.75263535
       67.35391      515.94881359        2.02446517
       67.45360      579.17643497        2.29776583
       67.55330      625.81013634        2.32421040
       67.65299      672.86179444        2.19271847
       67.75268      681.88333772        2.18330458
       67.85238      664.02622636        2.16943288
       67.95207      620.81188047        2.22325919
       68.05176      564.52626440        1.98567631
       68.15146      482.12954331        1.78475311
       68.25115      400.81244402        1.70269428
       68.35084      346.55524065        1.64640106
       68.45054      310.16589336        1.71272622
       68.55023      275.32104999        1.38120453
       68.64992      222.25107031        1.13972878
       68.74962      171.97940960        1.00146489
       68.84931      122.28200287        0.84742747
       68.94900       95.68455828        0.84275365
       69.04870       67.11956976        0.59016137
       69.14839       50.02367581        0.52641832
       69.24808       41.82746857        0.51822112
       69.34778       35.84068763        0.49395784
       69.44747       32.72461681        0.54491503
       69.54716       30.39474550        0.40907267
       69.64686       27.95084556        0.38586172
       69.74655       27.13767657        0.38212752
       69.84625       26.21625056        0.38434819
       69.94594       25.85332704        0.43075606
       70.04563       26.37939865        0.36117653
       70.14533       25.99887998        0.37418760
       70.24502       26.19195280        0.40111633
       70.34471       25.52380298        0.41847764
       70.44441       27.49111776        0.51030097
       70.54410       28.06550902        0.40317871
       70.64379       28.39158153        0.40299211
       70.74349       29.54633771        0.41726544
       70.84318       30.36227976        0.44303638
       70.94287       29.79391230        0.48440458
       71.04257       30.18359605        0.40244916
       71.14226       29.89397946        0.41486737
       71.24195       28.66532589        0.42653575
       71.34165       27.30780516        0.43936751
       71.44134       27.14695434        0.48762420
       71.54103       24.87164398        0.37963816
       71.64073       25.85406970        0.37978811
       71.74042       24.66304871        0.36682599
       71.84011       24.03731183        0.37550520
       71.93981       24.07830332        0.40875307
       72.03950       24.11876402        0.34495034
       72.13919       24.27749414        0.36059878
       72.23889       23.46977722        0.36837334
       72.33858       23.27251441        0.40872492
       72.43827       24.00638401        0.45639788
       72.53797       23.71621190        0.36950908
       72.63766       23.48197158        0.36078988
       72.73735       23.75835678        0.35386531
       72.83705       23.78883212        0.37297684
       72.93674       24.83340532        0.40444257
       73.03643       25.80462582        0.35651133
       73.13613       27.45638476        0.38628320
       73.23582       28.55382163        0.41538481
       73.33551       29.59702867        0.46866090
       73.43521       30.40632157        0.51597332
       73.53490       31.53393313        0.42372624
       73.63459       32.33759905        0.42206490
       73.73429       33.30409505        0.42509322
       73.83398       34.21169258        0.45620213
       73.93367       34.86333673        0.48415850
       74.03337       35.70150809        0.43172379
       74.13306       36.39610891        0.45922410
       74.23276       36.77705310        0.48267830
       74.33245       36.60670578        0.52928172
       74.43214       35.31444732        0.53685204
       74.53184       36.02066078        0.46026206
       74.63153       35.83889778        0.45553546
       74.73122       33.81186224        0.43900056
       74.83092       31.51535499        0.44785423
       74.93061       30.66902240        0.44727334
       75.03030       27.26606290        0.38005895
       75.13000       25.48852656        0.37988468
       75.22969       23.43999541        0.37950131
       75.32938       23.34539781        0.41487203
       75.42908       22.29802971        0.41053486
       75.52877       21.23434009        0.34737830
       75.62846       21.21345947        0.34488037
       75.72816       20.41495144        0.33842763
       75.82785       20.53586744        0.36773578
       75.92754       20.13467921        0.34427750
       76.02724       20.67491121        0.32550136
       76.12693       20.63339987        0.33824667
       76.22662       20.58449146        0.35646491
       76.32632       20.16939974        0.39839106
       76.42601       20.81915195        0.37882818
       76.52570       20.00934634        0.34146619
       76.62540       20.19419736        0.34270390
       76.72509       19.80404966        0.33646960
       76.82478       20.44427924        0.39454376
       76.92448       20.31623864        0.31255578
       77.02417       20.01631450        0.32084268
       77.12386       19.79806034        0.33450866
       77.22356       19.66383072        0.35361561
       77.32325       19.83523323        0.43429220
       77.42294       19.75736135        0.34695601
       77.52264       21.01360328        0.35124778
       77.62233       20.16240662        0.34228489
       77.72202       20.02463401        0.34031493
       77.82172       19.42027915        0.39148612
       77.92141       19.54083241        0.30105707
       78.02110       19.18554064        0.32111382
       78.12080       19.68915428        0.34507939
       78.22049       19.24725377        0.36282801
       78.32018       19.42402109        0.42453379
       78.41988       19.97645208        0.34034360
       78.51957       19.07802475        0.34260681
       78.61926       19.92843790        0.34783902
       78.71896       19.43875476        0.34413618
       78.81865       19.34539064        0.38251653
       78.91835       19.26388615        0.29432118
       79.01804       20.14632290        0.33145268
       79.11773       19.69372499        0.34334884
       79.21743       21.21903009        0.38109575
       79.31712       19.71770557        0.41352650
       79.41681       21.20337517        0.34590312
       79.51651       21.54942198        0.35492294
       79.61620       22.80541593        0.36552734
       79.71589       23.71968603        0.38622033
       79.81559       25.23007498        0.42104256
       79.91528       27.91947127        0.37656632
       80.01497       29.58323301        0.40400308
       80.11467       32.18706128        0.43918717
       80.21436       33.16912311        0.47582507
       80.31405       34.51020732        0.57637609
       80.41375       34.81064623        0.44297859
       80.51344       35.57447276        0.44576095
       80.61313       36.27311885        0.46229289
       80.71283       36.15815067        0.47966892
       80.81252       34.01999871        0.52405618
       80.91221       35.80334688        0.40128487
       81.01191       32.32162807        0.40837396
       81.11160       29.45445591        0.41969152
       81.21129       28.00788937        0.44183205
       81.31099       25.30912042        0.46751115
       81.41068       23.74136807        0.35250000
       81.51037       21.68995067        0.34546824
       81.61007       21.52171171        0.36348212
       81.70976       22.03852572        0.38127810
       81.80945       21.18748752        0.39753334
       81.90915       20.28334373        0.29624389
       82.00884       19.58662225        0.31152179
       82.10853       20.26604915        0.35311913
       82.20823       19.66823602        0.38476349
       82.30792       20.23054744        0.40807043
       82.40761       19.75214454        0.32949000
       82.50731       20.35479403        0.33844251
       82.60700       19.80338634        0.35746064
       82.70669       19.49369116        0.38617720
       82.80639       19.62167083        0.36925774
       82.90608       19.78985832        0.30053210
       83.00577       19.94069225        0.31910927
       83.10547       19.64867332        0.37195862
       83.20516       19.90014908        0.41941702
       83.30485       20.39437728        0.40575623
       83.40455       21.01512786        0.34375920
       83.50424       20.18101723        0.32692607
       83.60394       20.47509183        0.36259298
       83.70363       21.37174293        0.41646310
       83.80332       22.04448661        0.37017343
       83.90302       22.02925139        0.30930580
       84.00271       23.34944421        0.33152928
       84.10240       23.70271208        0.40438994
       84.20210       24.22472952        0.49664855
       84.30179       23.37002519        0.39666620
       84.40148       24.79288329        0.35895568
       84.50118       24.64515976        0.35145741
       84.60087       25.51051665        0.40307542
       84.70056       24.02764644        0.50862055
       84.80026       23.44475878        0.35098023
       84.89995       24.24789615        0.32225118
       84.99964       22.73880214        0.32472821
       85.09934       22.16028610        0.37771894
       85.19903       21.22161131        0.63281885
       85.29872       21.48359587        0.33500526
       85.39842       20.35704179        0.33136629
       85.49811       20.38641352        0.32216444
       85.59780       19.76263287        0.35527622
       85.69750       19.54357294        0.63547875
       85.79719       19.62523140        0.30413474
       85.89688       19.98833119        0.29979519
       85.99658       19.59148952        0.30380293
       86.09627       19.43923822        0.34679239
       86.19596       18.97430791        0.66109705
       86.29566       19.65252414        0.31673559
       86.39535       19.25743658        0.31682823
       86.49504       19.54715583        0.31417462
       86.59474       20.19739930        0.34528906
       86.69443       19.74079425        0.71513481
       86.79412       19.88686268        0.29876470
       86.89382       20.17904059        0.29314796
       86.99351       20.14461133        0.30410937
       87.09320       20.11811633        0.33701844
       87.19290       21.42371064        0.82530710
       87.29259       21.37928131        0.33191851
       87.39228       21.91885202        0.34427089
       87.49198       22.58917051        0.34247802
       87.59167       23.08192027        0.35041833
       87.69136       22.60090359        1.03711741
       87.79106       22.64697614        0.32194711
       87.89075       23.64087981        0.32635697
       87.99044       23.20590103        0.33465187
       88.09014       22.32277284        0.34852304
       88.18983       23.22383190        1.89241646
       88.28953       23.27471538        0.36258895
       88.38922       22.33880640        0.35858613
       88.48891       22.03341251        0.34005108
       88.58861       20.74675414        0.31843426
       88.68830       24.80380656        2.73055512
       88.78799       20.77535704        0.30744629
       88.88769       20.25197762        0.29495693
       88.98738       19.32685525        0.30071680
       89.08707       19.65516553        0.31388898
       89.18677       19.46538554        2.54525693
       89.28646       19.32637633        0.31533060
       89.38615       19.39213516        0.31700722
       89.48585       18.98735001        0.30772158
       89.58554       18.61228058        0.29722122
       89.68523       19.81397092        2.47916646
       89.78493       19.34373077        0.29269702
       89.88462       19.53656110        0.29160564
       89.98431       19.65547060        0.30188038
       90.08401       19.66465731        0.31060143
       90.18370       17.69785503        2.43807023
       90.28339       19.61752720        0.31642750
       90.38309       19.72325704        0.32219632
       90.48278       19.60445917        0.31402239
       90.58247       19.93986981        0.31161586
       90.68217       22.22390643        2.59847722
       90.78186       19.93323503        0.30220517
       90.88155       20.27319191        0.29719404
       90.98125       20.10256058        0.30416748
       91.08094       20.27886607        0.31528496
       91.18063       22.07802470        2.62366274
       91.28033       20.71128787        0.32743933
       91.38002       21.33043410        0.33947749
       91.47971       21.66490946        0.33388273
       91.57941       23.08716752        0.33835150
       91.67910       23.33822898        2.57726544
       91.77879       23.87668523        0.32961818
       91.87849       26.48050162        0.34012398
       91.97818       30.25742673        0.37780923
       92.07787       33.13297117        0.41034716
       92.17757       35.38346337        3.22169863
       92.27726       37.98943015        0.45296818
       92.37695       45.25236342        0.51113739
       92.47665       55.42683830        0.54463688
       92.57634       71.52989421        0.59726703
       92.67603       84.24190102        4.24605327
       92.77573       95.76046735        0.66886336
       92.87542      124.70390174        0.75153572
       92.97512      150.97970425        0.86505872
       93.07481      173.01624401        1.06004721
       93.17450      177.37284547        2.02611726
       93.27420      194.17796192        1.05125689
       93.37389      210.93240445        1.06920440
       93.47358      226.13955841        1.11620759
       93.57328      245.60512155        1.35134780
       93.67297      249.59697492        1.83822886
       93.77266      263.66246885        1.17340259
       93.87236      271.10328235        1.13084445
       93.97205      275.56526774        1.20140593
       94.07174      272.68850629        1.56276478
       94.17144      268.38851081        1.77002675
       94.27113      255.50977230        1.27422822
       94.37082      237.67028892        1.18677501
       94.47052      225.39949307        1.10733139
       94.57021      215.28691804        1.42476927
       94.66990      211.68096245        1.42458856
       94.76960      206.73248741        1.08838789
       94.86929      201.79541544        0.98718484
       94.96898      191.00669680        0.97285899
       95.06868      175.61985944        1.06721678
       95.16837      166.38982553        1.41544451
       95.26806      155.94929118        1.05616181
       95.36776      146.41823653        0.92554093
       95.46745      137.20865173        0.85880889
       95.56714      124.04391193        0.93384420
       95.66684      121.56622140        1.04550138
       95.76653      115.11698699        0.84442113
       95.86622      102.82352729        0.67771013
       95.96592       86.10828513        0.63724445
       96.06561       71.17142614        0.73993360
       96.16530       65.06675563        0.75003199
       96.26500       55.95204641        0.62389730
       96.36469       48.47492565        0.51710400
       96.46438       43.04452264        0.47352265
       96.56408       40.02565222        0.56988989
       96.66377       37.46240923        0.53524269
       96.76346       35.79037211        0.46591568
       96.86316       33.59034592        0.38929040
       96.96285       32.20156609        0.39309067
       97.06254       31.69171506        0.52549399
       97.16224       31.36757682        0.50027281
       97.26193       31.53887332        0.46914938
       97.36162       32.56281904        0.44620880
       97.46132       32.00822972        0.41091312
       97.56101       31.98009050        0.51869320
       97.66071       30.66090973        0.45432847
       97.76040       29.69586082        0.40634681
       97.86009       28.74946395        0.36029451
       97.95979       28.57472730        0.36504322
       98.05948       28.13314559        0.50651049
       98.15917       28.65213180        0.45654340
       98.25887       28.30059822        0.43595732
       98.35856       27.74930013        0.40573212
       98.45825       27.51057284        0.37557554
       98.55795       27.47403192        0.48970497
       98.65764       27.71016649        0.42144964
       98.75733       26.32675344        0.38184297
       98.85703       24.47426125        0.34305541
       98.95672       24.95584575        0.34772846
       99.05641       24.80160447        0.48337239
       99.15611       23.11020516        0.40009344
       99.25580       23.76890902        0.39138685
       99.35549       23.13600511        0.36685434
       99.45519       23.50366722        0.34429070
       99.55488       23.54497357        0.45995847
       99.65457       22.96189275        0.37406782
       99.75427       22.62226653        0.34766386
       99.85396       23.01942808        0.33790671
       99.95365       22.49374776        0.32736554
      100.05335       22.35991437        0.46261173
      100.15304       21.91070582        0.38456774
      100.25273       22.36063484        0.38400182
      100.35243       21.46461810        0.37338226
      100.45212       21.12826606        0.33786677
      100.55181       21.47338376        0.44837412
      100.65151       21.27286398        0.36493641
      100.75120       21.57118798        0.34215906
      100.85089       21.14938766        0.32303807
      100.95059       20.63155420        0.30989463
      101.05028       20.70686542        0.44289184
      101.14997       20.13644218        0.35980836
      101.24967       20.30250631        0.35600982
      101.34936       20.24630813        0.35705271
      101.44905       20.10425678        0.33743956
      101.54875       19.90862204        0.42196033
      101.64844       20.14204719        0.34533478
      101.74813       19.85444951        0.32152564
      101.84783       19.99109022        0.31271889
      101.94752       19.35258414        0.32408544
      102.04722       19.24714093        0.38839041
      102.14691       19.42836119        0.35127644
      102.24660       19.66172883        0.35049161
      102.34630       19.21998002        0.34911906
      102.44599       19.50580475        0.35684636
      102.54568       18.88781904        0.36752636
      102.64538       19.31716569        0.33141380
      102.74507       19.13791815        0.31329703
      102.84476       18.81146442        0.30424197
      102.94446       18.73355546        0.34433937
      103.04415       18.61432471        0.36661764
      103.14384       19.50789488        0.35177173
      103.24354       18.53849750        0.33810023
      103.34323       19.42268646        0.34269974
      103.44292       18.42695271        0.36111100
      103.54262       19.36345239        0.35937424
      103.64231       18.65390414        0.32019114
      103.74200       18.67156943        0.30501511
      103.84170       18.24342404        0.29558386
      103.94139       18.59118524        0.36242469
      104.04108       19.60167215        0.36049307
      104.14078       18.93416062        0.34313574
      104.24047       18.63822622        0.33954075
      104.34016       18.26129696        0.33750190
      104.43986       18.21487953        0.38386689
      104.53955       18.54042804        0.34918703
      104.63924       18.45415651        0.32667275
      104.73894       18.57844123        0.31501885
      104.83863       18.86552458        0.30815499
      104.93832       18.93249772        0.37381963
      105.03802       19.52876735        0.35640243
      105.13771       19.57582123        0.34332358
      105.23740       19.29100700        0.33949101
      105.33710       19.23018489        0.33970277
      105.43679       19.14312833        0.39456622
      105.53648       20.11796666        0.36396774
      105.63618       20.37825705        0.33695790
      105.73587       20.04557368        0.31968192
      105.83556       19.83344648        0.30916046
      105.93526       19.70559448        0.38977390
      106.03495       19.87822284        0.35453528
      106.13464       19.92932553        0.34261925
      106.23434       19.66942109        0.34234728
      106.33403       19.26970049        0.34248420
      106.43372       20.89096945        0.42666036
      106.53342       20.54074120        0.36853528
      106.63311       19.96499436        0.33032148
      106.73281       19.20228358        0.30761639
      106.83250       19.54299736        0.30500006
      106.93219       19.11648105        0.39033735
      107.03189       19.28089685        0.34739810
      107.13158       19.87693988        0.34167868
      107.23127       18.97565204        0.33998431
      107.33097       19.25060105        0.34261784
      107.43066       18.91927727        0.40918339
      107.53035       19.30443519        0.35528445
      107.63005       19.71317386        0.32671585
      107.72974       18.45967250        0.30283202
      107.82943       19.12722230        0.30395744
      107.92913       18.97798208        0.40020006
      108.02882       18.77335452        0.34893192
      108.12851       18.86917200        0.33440268
      108.22821       18.82232161        0.32926302
      108.32790       19.29074988        0.32907620
      108.42759       19.19689349        0.41623480
      108.52729       19.12182688        0.35223380
      108.62698       18.86674073        0.31627481
      108.72667       20.34660169        0.31491107
      108.82637       19.56481135        0.31632630
      108.92606       20.92703478        0.41657662
      109.02575       21.63808066        0.37064026
      109.12545       21.52040561        0.35995971
      109.22514       21.90020922        0.36219838
      109.32483       22.49061431        0.39920219
      109.42453       22.61066783        0.42197201
      109.52422       23.29912557        0.38647326
      109.62391       23.77463463        0.37093049
      109.72361       24.28908104        0.35903719
      109.82330       24.17265973        0.33697932
      109.92299       24.84714688        0.44437212
      110.02269       25.45622439        0.39223662
      110.12238       24.86697107        0.38477746
      110.22207       24.73891171        0.38046765
      110.32177       25.67666840        0.39520998
      110.42146       26.42431276        0.48596285
      110.52115       25.18570753        0.40355518
      110.62085       26.04794833        0.38846303
      110.72054       26.44333709        0.36752047
      110.82023       26.01230081        0.37513243
      110.91993       25.39596211        0.43057712
      111.01962       25.46509732        0.39837061
      111.11931       25.46174786        0.40020806
      111.21901       24.80084769        0.38702751
      111.31870       24.03978097        0.41262166
      111.41840       24.43269036        0.43310426
      111.51809       24.63696231        0.39679001
      111.61778       23.41934860        0.36416240
      111.71748       23.79263544        0.34022936
      111.81717       22.98251156        0.36186504
      111.91686       22.18252547        0.37360431
      112.01656       22.36962453        0.36632567
      112.11625       21.65923177        0.36264064
      112.21594       22.01296918        0.36487267
      112.31564       22.75503560        0.41125906
      112.41533       21.59569972        0.39329674
      112.51502       21.79707810        0.36325200
      112.61472       21.00232466        0.33969922
      112.71441       21.48859445        0.32360872
      112.81410       21.24592993        0.35968731
      112.91380       21.19190323        0.36550378
      113.01349       21.40559475        0.36035820
      113.11318       21.20259514        0.35889568
      113.21288       20.95412818        0.35619332
      113.31257       20.39147259        0.38823863
      113.41226       20.98751412        0.37358982
      113.51196       20.32193900        0.34558441
      113.61165       20.52941705        0.33523670
      113.71134       19.45495104        0.31072773
      113.81104       19.29411273        0.35455250
      113.91073       18.70877600        0.34032713
      114.01042       19.51536761        0.34471467
      114.11012       19.64384212        0.34528042
      114.20981       19.84324187        0.34852408
      114.30950       18.31387799        0.37927609
      114.40920       18.82855181        0.35504300
      114.50889       18.94392322        0.33337789
      114.60858       18.00410611        0.31512111
      114.70828       18.85736048        0.31166009
      114.80797       19.64351912        0.36260302
      114.90766       18.25457554        0.32889639
      115.00736       18.22779596        0.32643790
      115.10705       18.52740971        0.33017638
      115.20674       18.12524366        0.33164402
      115.30644       18.39252742        0.38270869
      115.40613       18.43556641        0.34750029
      115.50582       18.83079595        0.33231064
      115.60552       18.85669843        0.32197794
      115.70521       18.73997621        0.30898231
      115.80490       18.77437887        0.35985869
      115.90460       18.32906986        0.32161319
      116.00429       18.22203058        0.32443821
      116.10399       18.21817941        0.32648541
      116.20368       18.59302314        0.33716959
      116.30337       18.71087738        0.40404650
      116.40307       19.27805936        0.35857235
      116.50276       19.16338710        0.33864527
      116.60245       18.35188549        0.31853452
      116.70215       18.98807710        0.31224211
      116.80184       18.82912392        0.36884601
      116.90153       18.95682455        0.33314285
      117.00123       18.49527860        0.32610938
      117.10092       19.66036006        0.34513915
      117.20061       18.22679053        0.33727314
      117.30031       18.87804709        0.41276436
      117.40000       19.60298430        0.35239794
      117.49969       19.99645062        0.33786399
      117.59939       20.03688184        0.32272041
      117.69908       20.07025818        0.31267266
      117.79877       20.12768224        0.38396863
      117.89847       20.94561939        0.34016207
      117.99816       21.12984430        0.34664309
      118.09785       23.30165777        0.37302808
      118.19755       23.96429438        0.39523967
      118.29724       24.30424382        0.43384737
      118.39693       25.71586241        0.40719359
      118.49663       27.91521506        0.39919480
      118.59632       29.73838931        0.39666281
      118.69601       31.66228841        0.42789927
      118.79571       34.16934592        0.48111626
      118.89540       38.00754945        0.47467410
      118.99509       42.42609025        0.50201989
      119.09479       46.57998810        0.53049782
      119.19448       54.56082096        0.62626653
      119.29417       60.40325678        0.68595827
      119.39387       68.60074180        0.67390876
      119.49356       78.02860418        0.67720621
      119.59325       87.63404983        0.69957776
      119.69295       99.29591139        0.78950855
      119.79264      111.31875277        0.84858555
      119.89233      123.40523970        0.86774536
      119.99203      136.07683787        0.89176891
      120.09172      146.95481514        0.94735790
      120.19141      157.60718036        1.10290060
      120.29111      166.07691418        1.12027368
      120.39080      175.47647219        1.10198803
      120.49049      185.47545008        1.05883702
      120.59019      194.21500724        1.05445790
      120.68988      205.06047018        1.16999622
      120.78958      213.13393408        1.16646662
      120.88927      219.62360925        1.16579374
      120.98896      225.11643056        1.16908090
      121.08866      233.80821270        1.19845749
      121.18835      239.38214740        1.39469297
      121.28804      246.52071374        1.38136273
      121.38774      249.46832182        1.31873764
      121.48743      252.28437051        1.25617738
      121.58712      253.27359846        1.20009544
      121.68682      254.10752211        1.32414204
      121.78651      248.68722627        1.24867329
      121.88620      245.46813260        1.22446475
      121.98590      238.10439500        1.21174780
      122.08559      227.77535552        1.20592278
      122.18528      222.74324796        1.39108132
      122.28498      215.89690383        1.28444431
      122.38467      205.88389617        1.19762468
      122.48436      194.57905957        1.09850695
      122.58406      184.49095536        1.01016938
      122.68375      173.72184561        1.10777897
      122.78344      160.67841386        0.99780119
      122.88314      151.40349977        0.96011345
      122.98283      141.08148912        0.94500389
      123.08252      133.81488211        0.91589013
      123.18222      124.31461561        1.02611164
      123.28191      117.11142952        0.90120819
      123.38160      108.40571075        0.83565525
      123.48130      101.38658285        0.77681219
      123.58099       91.71875296        0.68876102
      123.68068       85.53338569        0.75780876
      123.78038       79.62706948        0.65941578
      123.88007       74.30580715        0.62474827
      123.97976       66.49040513        0.59959640
      124.07946       59.84010632        0.56153752
      124.17915       55.56807360        0.60876177
      124.27884       52.79955326        0.53097439
      124.37854       48.00908331        0.47577527
      124.47823       44.18751493        0.44637564
      124.57792       40.57614644        0.45545522
