        5.04553       35.44079183        0.94033749
        5.14523       37.84324597        0.93019469
        5.24492       35.68420464        0.89041979
        5.34461       36.60615940        0.83041105
        5.44431       36.38637585        0.90549686
        5.54400       35.51539976        0.74551722
        5.64369       35.93183982        0.75364830
        5.74339       34.83985200        0.66498521
        5.84308       36.60192949        0.69010998
        5.94277       35.76091285        0.68025166
        6.04247       35.23711642        0.65492719
        6.14216       35.52815140        0.60542906
        6.24185       36.00977718        0.62817382
        6.34155       35.39056317        0.59408028
        6.44124       35.32624055        0.62570724
        6.54093       35.65700103        0.59609163
        6.64063       35.33872927        0.56244187
        6.74032       36.12323275        0.56875573
        6.84001       36.00673380        0.56459521
        6.93971       35.65346670        0.56664307
        7.03940       35.88814131        0.52961835
        7.13909       35.40010366        0.52360916
        7.23879       36.43112743        0.52378418
        7.33848       35.45744839        0.52459999
        7.43817       36.53944065        0.52142519
        7.53787       35.68849599        0.50856215
        7.63756       35.98484142        0.48706173
        7.73725       35.38639454        0.50211375
        7.83695       36.93839254        0.49646058
        7.93664       36.16698294        0.51239289
        8.03633       37.53945011        0.47016111
        8.13603       35.84291014        0.45388818
        8.23572       36.92424302        0.46984950
        8.33541       36.47401826        0.46229116
        8.43511       36.29927527        0.48794437
        8.53480       36.41344143        0.45284398
        8.63449       37.20121533        0.45356135
        8.73419       36.04953355        0.43580540
        8.83388       36.56248124        0.44141749
        8.93357       36.83409749        0.44209235
        9.03327       37.31309307        0.43339407
        9.13296       37.95356131        0.43489739
        9.23265       36.95407466        0.43435935
        9.33235       38.42854968        0.45609136
        9.43204       37.44445942        0.44837220
        9.53174       37.44271533        0.43084946
        9.63143       37.54990598        0.44594499
        9.73112       36.85726186        0.44180458
        9.83082       38.58671445        0.47184412
        9.93051       38.25749006        0.46280521
       10.03020       38.07312776        0.44626878
       10.12990       38.73435657        0.43942267
       10.22959       37.92344248        0.45237026
       10.32928       37.93530899        0.47136461
       10.42898       38.45869289        0.46853950
       10.52867       39.17855130        0.45746383
       10.62836       39.31897602        0.45819205
       10.72806       38.93203989        0.46156401
       10.82775       39.53571682        0.46403697
       10.92744       39.55797805        0.47106954
       11.02714       39.30537742        0.44849338
       11.12683       39.63375822        0.46554002
       11.22652       39.44239263        0.46983561
       11.32622       39.74384344        0.48410777
       11.42591       40.08904061        0.46919451
       11.52560       40.45926216        0.46608867
       11.62530       40.86712930        0.47264255
       11.72499       40.70642606        0.48022579
       11.82468       41.91928255        0.50062617
       11.92438       40.89706300        0.46975102
       12.02407       42.05884620        0.47114779
       12.12376       42.43290365        0.47612260
       12.22346       42.80242370        0.50744269
       12.32315       42.75241523        0.51208513
       12.42284       41.82744479        0.48284496
       12.52254       42.50347143        0.48293522
       12.62223       43.07477354        0.49969946
       12.72192       42.84335504        0.48414553
       12.82162       43.00196584        0.52399577
       12.92131       43.60595840        0.48448630
       13.02100       43.93778624        0.48065170
       13.12070       44.45003128        0.49146856
       13.22039       45.07399032        0.50945765
       13.32008       45.63738967        0.53219207
       13.41978       45.99588182        0.50793508
       13.51947       46.41614770        0.51976514
       13.61916       46.04441350        0.49977544
       13.71886       47.49347361        0.53244298
       13.81855       47.86787989        0.54264269
       13.91824       49.28515947        0.51836107
       14.01794       48.77137317        0.50436599
       14.11763       48.59976811        0.52140282
       14.21733       50.50082052        0.53433973
       14.31702       51.45578609        0.56660680
       14.41671       51.58318359        0.55024119
       14.51641       52.70273983        0.54099645
       14.61610       54.37500632        0.55241418
       14.71579       55.64702480        0.56919002
       14.81549       58.21592816        0.61098109
       14.91518       58.81772457        0.56158361
       15.01487       62.45175927        0.58959111
       15.11457       67.48288737        0.62084540
       15.21426       74.90951876        0.67496133
       15.31395       81.83292222        0.72501947
       15.41365       87.67044991        0.72700828
       15.51334      105.74906804        0.77726111
       15.61303      125.09371923        0.87390649
       15.71273      149.18506682        0.94209992
       15.81242      173.34057220        1.07003714
       15.91211      184.58872652        1.06753824
       16.01181      228.75618288        1.15214941
       16.11150      277.30869481        1.31896907
       16.21119      348.17959800        1.54089196
       16.31089      430.21146858        1.74138044
       16.41058      503.29428886        1.86897481
       16.51027      634.54491716        2.18484267
       16.60997      826.46760939        2.48213046
       16.70966     1035.14416200        2.93864373
       16.80935     1169.20150037        3.22295188
       16.90905     1346.90734344        3.43958455
       17.00874     1194.59860003        3.03815074
       17.10843      957.39105146        2.78412416
       17.20813      745.31376784        2.39292675
       17.30782      569.93709178        2.04852264
       17.40751      390.70724381        1.64162512
       17.50721      293.39850970        1.35320449
       17.60690      216.72385054        1.18391017
       17.70659      164.82016244        1.02668385
       17.80629      124.98424464        0.89739740
       17.90598       95.92121831        0.73120384
       18.00567       79.74476751        0.67649010
       18.10537       70.98092310        0.61980747
       18.20506       65.23795649        0.65015199
       18.30475       61.18601002        0.60011050
       18.40445       58.69284568        0.57163154
       18.50414       56.94707282        0.58131163
       18.60384       54.52803289        0.55947223
       18.70353       52.82281909        0.58231714
       18.80322       52.60925945        0.54672635
       18.90292       51.09335345        0.53322770
       19.00261       49.81618463        0.51038699
       19.10230       48.21357770        0.53496843
       19.20200       48.23129629        0.54755355
       19.30169       47.83527040        0.52569032
       19.40138       46.15234092        0.51145729
       19.50108       46.48967226        0.52505431
       19.60077       45.37705423        0.51344289
       19.70046       44.04619131        0.53001960
       19.80016       44.45616819        0.50427329
       19.89985       43.91777658        0.48650463
       19.99954       43.94105877        0.49149281
       20.09924       43.08661469        0.49256705
       20.19893       43.29340960        0.52786165
       20.29862       43.00848459        0.49833182
       20.39832       42.26649653        0.50973562
       20.49801       42.25220769        0.49991674
       20.59770       41.19926903        0.50361600
       20.69740       40.12577367        0.51451954
       20.79709       40.84919939        0.49444142
       20.89678       40.03335802        0.47704088
       20.99648       39.20558352        0.47973441
       21.09617       39.02944991        0.49973383
       21.19586       38.02998109        0.49295976
       21.29556       37.45793143        0.47801641
       21.39525       37.57078998        0.47947092
       21.49494       37.35384177        0.46970824
       21.59464       37.23142996        0.47911180
       21.69433       35.90168486        0.48973741
       21.79402       36.86807260        0.45316166
       21.89372       35.68895324        0.43669369
       21.99341       35.94014476        0.45682683
       22.09310       35.91331684        0.45860250
       22.19280       35.74715108        0.48520242
       22.29249       36.03589151        0.45462536
       22.39218       35.81802300        0.46317634
       22.49188       35.18364612        0.45954710
       22.59157       35.75720581        0.46933576
       22.69126       35.50278261        0.49143009
       22.79096       35.49415022        0.44395150
       22.89065       35.60981402        0.43450754
       22.99034       35.63982274        0.44666089
       23.09004       35.96473150        0.46865607
       23.18973       35.47070445        0.46456097
       23.28943       34.95441161        0.45435275
       23.38912       34.77346498        0.45772063
       23.48881       36.47521278        0.47132155
       23.58851       35.04470946        0.46771914
       23.68820       35.07491024        0.49276159
       23.78789       34.36337336        0.43420239
       23.88759       33.97656399        0.43787556
       23.98728       34.29385663        0.44895735
       24.08697       34.89593415        0.44412201
       24.18667       33.21556711        0.46451765
       24.28636       34.06490693        0.44632314
       24.38605       33.07224990        0.44923614
       24.48575       34.04886993        0.45522604
       24.58544       33.83225835        0.46755323
       24.68513       33.55692257        0.46573141
       24.78483       33.34995011        0.42786754
       24.88452       33.61399068        0.42855460
       24.98421       32.87150397        0.43827593
       25.08391       33.26134074        0.45006920
       25.18360       33.48332952        0.46134399
       25.28329       33.51899367        0.44495046
       25.38299       34.34754058        0.44913021
       25.48268       33.47296397        0.44592629
       25.58237       32.68760330        0.45841085
       25.68207       32.98060893        0.45121838
       25.78176       33.17081689        0.42537396
       25.88145       33.64825192        0.43988289
       25.98115       32.71205234        0.43828923
       26.08084       34.36186453        0.46046742
       26.18053       33.92715838        0.47003826
       26.28023       34.22836544        0.44682077
       26.37992       33.30137195        0.44093492
       26.47961       33.31563783        0.45551942
       26.57931       32.74323986        0.47119995
       26.67900       32.17287868        0.43704005
       26.77869       32.11879992        0.43357068
       26.87839       33.58506200        0.43871204
       26.97808       33.83819039        0.43757139
       27.07777       32.81574433        0.46415065
       27.17747       32.90186075        0.44370757
       27.27716       33.79493144        0.43841345
       27.37685       33.18136399        0.45134145
       27.47655       34.03046358        0.45004304
       27.57624       33.61287426        0.46724914
       27.67593       33.18660758        0.45463937
       27.77563       32.46091809        0.43041049
       27.87532       32.46845636        0.42329874
       27.97502       34.15010845        0.44299460
       28.07471       33.93429200        0.46797549
       28.17440       33.14778356        0.44233391
       28.27410       33.39391891        0.44306381
       28.37379       33.77172257        0.45630124
       28.47348       33.59747374        0.45214484
       28.57318       34.46024676        0.49614641
       28.67287       33.80142570        0.43804622
       28.77256       33.87689628        0.43048072
       28.87226       33.82506336        0.44072156
       28.97195       33.62907953        0.44108817
       29.07164       34.13706251        0.48379356
       29.17134       33.97394841        0.43966194
       29.27103       34.58707172        0.45082966
       29.37072       34.85162711        0.47121287
       29.47042       34.87608599        0.46459222
       29.57011       34.43481841        0.48849800
       29.66980       34.53969012        0.44612754
       29.76950       35.59439886        0.45273934
       29.86919       35.47743589        0.44293959
       29.96888       35.35454789        0.46237273
       30.06858       35.56130336        0.47882513
       30.16827       36.93966090        0.46181201
       30.26796       36.51163740        0.45959755
       30.36766       37.30583112        0.47412400
       30.46735       36.83893709        0.47515526
       30.56704       36.81594795        0.49979181
       30.66674       38.89643242        0.47977583
       30.76643       38.55019694        0.46630405
       30.86612       39.91273698        0.48440812
       30.96582       41.28316980        0.49637275
       31.06551       42.75555123        0.52991646
       31.16520       44.86460675        0.51057148
       31.26490       48.44230413        0.52670067
       31.36459       56.60166540        0.57838164
       31.46428       70.19666182        0.67318039
       31.56398       91.97117045        0.78285494
       31.66367      112.12422874        0.81128401
       31.76336      157.53628890        0.97098215
       31.86306      239.29310940        1.20379561
       31.96275      342.34863043        1.50023373
       32.06244      415.65256892        1.73366503
       32.16214      482.51047904        1.77580461
       32.26183      460.29930408        1.77008378
       32.36152      382.10852531        1.64830034
       32.46122      287.55447791        1.42542151
       32.56091      210.10181259        1.22380694
       32.66061      139.92179718        0.93726624
       32.76030      104.11879978        0.78597984
       32.85999       92.70858643        0.75147498
       32.95969      102.25398355        0.79875538
       33.05938      135.84764398        0.94319830
       33.15907      188.60782402        1.05907305
       33.25877      288.37275173        1.37470617
       33.35846      450.83233529        1.78005138
       33.45815      655.44476328        2.31214138
       33.55785      836.21095588        2.69678673
       33.65754     1054.07196610        2.92200116
       33.75723     1146.37835588        3.09213523
       33.85693     1047.27843639        2.92243433
       33.95662      886.85523747        2.69804442
       34.05631      724.30209516        2.35660307
       34.15601      577.63529175        2.01302497
       34.25570      464.53062089        1.77218795
       34.35539      356.32312575        1.55999712
       34.45509      263.86778664        1.39475018
       34.55478      187.63018234        1.09202667
       34.65447      118.21114160        0.82245843
       34.75417       82.07731488        0.69201819
       34.85386       65.30875228        0.60789100
       34.95355       55.06497038        0.57505024
       35.05325       50.03508323        0.56630515
       35.15294       48.05662056        0.52347943
       35.25263       46.10404902        0.52150513
       35.35233       43.34331148        0.52000756
       35.45202       42.53791544        0.53800631
       35.55171       41.31178979        0.51674133
       35.65141       39.68217480        0.48888990
       35.75110       38.76422682        0.47888999
       35.85079       38.40327186        0.47443946
       35.95049       37.63978870        0.48143198
       36.05018       36.70337024        0.46760088
       36.14987       36.93281704        0.45078853
       36.24957       35.78318093        0.46310175
       36.34926       34.51372255        0.46349761
       36.44895       34.39127145        0.47104937
       36.54865       33.71767459        0.44844916
       36.64834       33.43979961        0.43701302
       36.74803       33.17880142        0.44139194
       36.84773       33.27082905        0.43948293
       36.94742       32.93935598        0.47361481
       37.04711       32.96634757        0.41720846
       37.14681       33.03839257        0.42688426
       37.24650       31.98751447        0.43060492
       37.34620       31.63327695        0.43952160
       37.44589       31.59372594        0.46996281
       37.54558       31.22422447        0.42594871
       37.64528       31.41446855        0.42761218
       37.74497       30.22379830        0.41237719
       37.84466       31.68987929        0.44731104
       37.94436       30.99703737        0.45116955
       38.04405       30.47801168        0.40461901
       38.14374       30.49152066        0.40821810
       38.24344       30.64307704        0.41551826
       38.34313       30.50575831        0.43259778
       38.44282       31.87757739        0.47866411
       38.54252       32.08772981        0.43037346
       38.64221       32.90002363        0.43546635
       38.74190       34.96885012        0.45357463
       38.84160       38.86563412        0.47981243
       38.94129       43.01995990        0.53016032
       39.04098       50.21012176        0.51546940
       39.14068       58.29863563        0.57781559
       39.24037       63.70684337        0.60440458
       39.34006       62.63865688        0.62200983
       39.43976       57.11151894        0.64624943
       39.53945       53.04427398        0.55729984
       39.63914       44.11197590        0.50554978
       39.73884       37.52155074        0.46743934
       39.83853       33.56835543        0.43856679
       39.93822       31.83818051        0.45246268
       40.03792       30.79897648        0.40608400
       40.13761       30.84935359        0.40760659
       40.23730       31.04088066        0.42389383
       40.33700       30.78150964        0.43498101
       40.43669       31.13798680        0.45739373
       40.53638       31.53071291        0.42780197
       40.63608       31.80319066        0.43763879
       40.73577       32.38130367        0.43922634
       40.83546       32.43813552        0.44353396
       40.93516       32.81853570        0.45478899
       41.03485       31.76089675        0.42190983
       41.13454       31.43396018        0.42038319
       41.23424       31.01173853        0.42752549
       41.33393       31.02019887        0.44679284
       41.43362       30.82738201        0.45966194
       41.53332       31.58669266        0.43461721
       41.63301       31.00369187        0.43876404
       41.73270       30.99464713        0.42905557
       41.83240       31.30600209        0.44430429
       41.93209       32.82937724        0.45215294
       42.03179       32.55584451        0.41090459
       42.13148       34.52715629        0.44481066
       42.23117       36.98674585        0.46082036
       42.33087       42.11386522        0.52667744
       42.43056       52.34703303        0.57651997
       42.53025       64.12725402        0.61893866
       42.62995       92.78683808        0.75366526
       42.72964      132.35285112        0.91177027
       42.82933      176.49755817        1.08040884
       42.92903      219.29750687        1.17092376
       43.02872      250.97283318        1.19450596
       43.12841      241.98009342        1.19322090
       43.22811      202.34301657        1.13706174
       43.32780      156.99826719        1.04466285
       43.42749      116.82970325        0.87654417
       43.52719       79.09176883        0.68947102
       43.62688       55.45515848        0.57259456
       43.72657       41.69238405        0.50711043
       43.82627       36.72985321        0.49750472
       43.92596       33.92367535        0.43202142
       44.02565       31.60818628        0.41366472
       44.12535       31.18135406        0.42557033
       44.22504       30.30798574        0.43679191
       44.32473       30.34814261        0.46115633
       44.42443       29.63154722        0.43754630
       44.52412       28.46128264        0.41617473
       44.62381       28.81002767        0.42520782
       44.72351       28.85532852        0.41155002
       44.82320       29.08566777        0.46223170
       44.92289       28.45930252        0.38044557
       45.02259       27.76959046        0.37893453
       45.12228       28.05153538        0.39423325
       45.22197       27.28910670        0.39832566
       45.32167       28.52870581        0.45089010
       45.42136       27.27644979        0.40164620
       45.52105       26.77980274        0.39425328
       45.62075       27.09372258        0.40152246
       45.72044       26.27376513        0.39411695
       45.82013       26.49889299        0.43221191
       45.91983       26.03176917        0.36538503
       46.01952       26.06875637        0.37522478
       46.11921       26.40909522        0.37840410
       46.21891       26.53716291        0.39839782
       46.31860       26.31985127        0.42879038
       46.41830       26.67299217        0.39872394
       46.51799       26.43517809        0.39759116
       46.61768       26.44710597        0.39563874
       46.71738       25.97973394        0.40289091
       46.81707       26.12820898        0.41944352
       46.91676       26.82731630        0.37197782
       47.01646       27.20526155        0.38461024
       47.11615       26.79094667        0.38950974
       47.21584       27.42561222        0.40621507
       47.31554       26.83253500        0.43633329
       47.41523       25.97673885        0.40217655
       47.51492       26.46699809        0.40775346
       47.61462       26.62090360        0.40716983
       47.71431       26.90911773        0.41419811
       47.81400       25.74278086        0.41624212
       47.91370       26.00397323        0.36761361
       48.01339       26.22470545        0.36833171
       48.11308       25.40607454        0.37470839
       48.21278       25.91456614        0.39384581
       48.31247       25.43411310        0.40237979
       48.41216       26.10296430        0.38140617
       48.51186       24.92971284        0.38538984
       48.61155       25.98175032        0.39160084
       48.71124       24.86879070        0.39080830
       48.81094       24.48201434        0.38536991
       48.91063       25.51115070        0.35157553
       49.01032       25.35027750        0.36096431
       49.11002       25.46878343        0.37550463
       49.20971       25.16045280        0.39304537
       49.30940       25.80863195        0.41128834
       49.40910       25.41650062        0.38836848
       49.50879       24.64811894        0.38981174
       49.60848       25.69091846        0.40197495
       49.70818       24.71420169        0.40949767
       49.80787       25.26946033        0.40173488
       49.90756       25.19539686        0.36380745
       50.00726       25.19570879        0.37221486
       50.10695       26.23606607        0.38919164
       50.20664       25.48554665        0.40202651
       50.30634       26.37552771        0.42826515
       50.40603       26.58817215        0.40304228
       50.50572       26.84386814        0.40514237
       50.60542       26.28160563        0.40125379
       50.70511       26.46759603        0.41365285
       50.80480       26.57987507        0.40661889
       50.90450       27.90541173        0.37767769
       51.00419       27.52301449        0.38002767
       51.10389       29.26213451        0.40509147
       51.20358       31.14807966        0.44547433
       51.30327       32.91146544        0.45530492
       51.40297       38.14101794        0.46964795
       51.50266       46.37088058        0.52188420
       51.60235       60.41795702        0.60892837
       51.70205       79.07444902        0.74417516
       51.80174       95.87627618        0.75830345
       51.90143      121.29422954        0.80180643
       52.00113      139.66925352        0.86612977
       52.10082      146.76032917        0.91954317
       52.20051      141.41259173        0.99005151
       52.30021      132.26379115        0.91792706
       52.39990      114.12591316        0.83297037
       52.49959       93.41456257        0.76465855
       52.59929       77.17506888        0.70562004
       52.69898       63.46479246        0.70075536
       52.79867       49.90388862        0.52324450
       52.89837       39.96625157        0.45021121
       52.99806       34.02576305        0.42131189
       53.09775       30.34942970        0.40915414
       53.19745       28.71241963        0.45494704
       53.29714       27.56287899        0.39375503
       53.39683       27.25830575        0.40782118
       53.49653       27.34655775        0.41195122
       53.59622       26.81720043        0.40793856
       53.69591       25.86711496        0.44034024
       53.79561       26.50490678        0.37290898
       53.89530       26.51140544        0.36782919
       53.99499       25.20546685        0.36479070
       54.09469       26.29666866        0.39091889
       54.19438       25.28623929        0.41754513
       54.29407       26.02970800        0.39142746
       54.39377       25.89507911        0.39349827
       54.49346       25.59669913        0.39198274
       54.59315       25.93316009        0.40077867
       54.69285       25.60903862        0.42440756
       54.79254       25.41863414        0.36209895
       54.89223       24.99035599        0.35576376
       54.99193       25.63198023        0.37156171
       55.09162       25.89625447        0.39019633
       55.19131       25.78275584        0.41942177
       55.29101       25.35082591        0.38703992
       55.39070       25.72160040        0.40179519
       55.49039       25.73429823        0.39933672
       55.59009       25.15968234        0.40695928
       55.68978       25.36317395        0.41841367
       55.78948       26.28233555        0.37168665
       55.88917       26.59745576        0.37471685
       55.98886       29.71073195        0.40016492
       56.08856       33.04594034        0.43665367
       56.18825       34.53700984        0.48260033
       56.28794       37.22151049        0.45772068
       56.38764       40.00915547        0.49017295
       56.48733       40.79771727        0.50097041
       56.58702       41.71440517        0.52068088
       56.68672       42.99130338        0.54596709
       56.78641       43.00416738        0.47162986
       56.88610       43.39289596        0.47862768
       56.98580       41.52572458        0.46837218
       57.08549       40.56672020        0.49118986
       57.18518       40.88393058        0.51099844
       57.28488       38.11204368        0.45825883
       57.38457       34.50287750        0.46141532
       57.48426       32.15011275        0.45468582
       57.58396       30.14466113        0.45251400
       57.68365       29.17550270        0.45100464
       57.78334       26.52963510        0.37598370
       57.88304       25.71810844        0.37444029
       57.98273       26.01194941        0.38211253
       58.08242       25.15327473        0.40461591
       58.18212       25.34994025        0.41436003
       58.28181       25.41761405        0.38928000
       58.38150       26.89003919        0.42196836
       58.48120       27.60854292        0.43832883
       58.58089       29.37499143        0.45837078
       58.68058       30.25742675        0.45523889
       58.78028       35.22004525        0.42885792
       58.87997       43.94169894        0.47088540
       58.97966       56.88021709        0.55559300
       59.07936       67.11688215        0.64437676
       59.17905       76.94269506        0.70131482
       59.27874       86.28631002        0.70844045
       59.37844       91.75217114        0.75604731
       59.47813       90.21803422        0.78062665
       59.57782       83.47651574        0.78268942
       59.67752       76.18221022        0.69440987
       59.77721       62.26298480        0.57478373
       59.87690       46.30989920        0.48997709
       59.97660       37.75670837        0.46313883
       60.07629       32.68632536        0.46718559
       60.17598       28.80232878        0.42014841
       60.27568       26.41462913        0.39041452
       60.37537       25.36427747        0.38932729
       60.47507       25.18752906        0.40318284
       60.57476       24.34798904        0.43503881
       60.67445       23.79958912        0.36800941
       60.77415       23.53933097        0.34749274
       60.87384       24.05276920        0.34672983
       60.97353       24.42869644        0.36912073
       61.07323       23.85460585        0.41110561
       61.17292       23.19903622        0.35036001
       61.27261       23.32339832        0.36294926
       61.37231       23.66535658        0.37821230
       61.47200       23.33854130        0.39081449
       61.57169       22.17332799        0.43303296
       61.67139       22.76996889        0.35843382
       61.77108       23.60680848        0.35767434
       61.87077       22.95472551        0.35014114
       61.97047       22.90119733        0.36248585
       62.07016       24.35684444        0.42333617
       62.16985       23.26334437        0.36231678
       62.26955       23.31920069        0.37652772
       62.36924       22.23857783        0.37994795
       62.46893       22.89930870        0.40033001
       62.56863       23.31532326        0.45446785
       62.66832       23.20360921        0.36806748
       62.76801       23.03631134        0.35730150
       62.86771       23.77354780        0.35451127
       62.96740       23.57946724        0.36265787
       63.06709       22.72861994        0.39665918
       63.16679       22.71293524        0.34979013
       63.26648       22.36341400        0.35851151
       63.36617       22.46522538        0.37494597
       63.46587       23.69401999        0.39881905
       63.56556       23.57049923        0.42373315
       63.66525       23.29625253        0.35628320
       63.76495       23.30764039        0.34594756
       63.86464       24.16484889        0.35014008
       63.96433       23.90787120        0.36403260
       64.06403       22.90754592        0.38027746
       64.16372       22.98829388        0.35413398
       64.26341       24.08994916        0.38024943
       64.36311       23.69103686        0.38479566
       64.46280       23.70455496        0.40638790
       64.56249       23.81125009        0.41358469
       64.66219       24.37468185        0.36559859
       64.76188       23.61991007        0.35448071
       64.86157       23.85697549        0.35440073
       64.96127       24.90367416        0.38106135
       65.06096       24.67952367        0.41192403
       65.16066       25.26908051        0.37810283
       65.26035       26.16211701        0.39260335
       65.36004       25.49907676        0.40324396
       65.45974       26.23636132        0.42213055
       65.55943       27.31070412        0.45003196
       65.65912       27.75048718        0.39283261
       65.75882       29.23730163        0.39957443
       65.85851       32.02370463        0.41880423
       65.95820       34.15627864        0.45585129
       66.05790       38.00981027        0.49755460
       66.15759       42.15461287        0.49812735
       66.25728       47.80199644        0.54647962
       66.35698       52.41556744        0.59482453
       66.45667       58.12611014        0.66506360
       66.55636       64.24714289        0.69691620
       66.65606       78.18659941        0.68483846
       66.75575      102.21416129        0.77395988
       66.85544      141.53805815        0.91091380
       66.95514      197.18480878        1.12952866
       67.05483      258.29777598        1.31475831
       67.15452      344.32778778        1.46525839
       67.25422      439.55009682        1.76205155
       67.35391      519.02306809        2.03000031
       67.45360      585.42796481        2.31085076
       67.55330      632.28993022        2.33701623
       67.65299      680.95209631        2.20719919
       67.75268      690.21195577        2.19801263
       67.85238      671.91457120        2.18353473
       67.95207      634.45769415        2.25105825
       68.05176      571.44916425        1.99866938
       68.15146      483.84522233        1.78706025
       68.25115      403.71032391        1.70835600
       68.35084      345.37106325        1.64186013
       68.45054      307.92194706        1.70436070
       68.55023      268.65287377        1.36146825
       68.64992      216.71648904        1.12325010
       68.74962      161.05222426        0.96615114
       68.84931      115.20422358        0.82060607
       68.94900       90.93203673        0.82000203
       69.04870       63.19028116        0.57162735
       69.14839       48.44394814        0.51738498
       69.24808       39.73446891        0.50439404
       69.34778       35.36875603        0.49018601
       69.44747       33.57843510        0.55155939
       69.54716       29.89042604        0.40524022
       69.64686       28.10741131        0.38658975
       69.74655       26.91817359        0.38020313
       69.84625       27.65374125        0.39449356
       69.94594       25.89203762        0.43067609
       70.04563       26.40286565        0.36099881
       70.14533       26.18274801        0.37516954
       70.24502       26.23778790        0.40109311
       70.34471       26.72544517        0.42792105
       70.44441       26.72118990        0.50254891
       70.54410       27.97437355        0.40213716
       70.64379       28.52247343        0.40355129
       70.74349       28.52055192        0.40948373
       70.84318       30.83999552        0.44613366
       70.94287       30.26563128        0.48781408
       71.04257       30.72946596        0.40573728
       71.14226       30.17510524        0.41644656
       71.24195       29.59586776        0.43308146
       71.34165       27.81833682        0.44308628
       71.44134       27.22669033        0.48788852
       71.54103       26.13912184        0.38892934
       71.64073       25.52444468        0.37697763
       71.74042       24.83043329        0.36773503
       71.84011       24.65200328        0.37996746
       71.93981       25.17244115        0.41764017
       72.03950       24.02100520        0.34391904
       72.13919       24.11319006        0.35902536
       72.23889       24.13254813        0.37323894
       72.33858       23.76836784        0.41271035
       72.43827       23.81551841        0.45413318
       72.53797       23.69090732        0.36896188
       72.63766       23.30606479        0.35908379
       72.73735       23.49075752        0.35151523
       72.83705       23.06120759        0.36682567
       72.93674       23.78348925        0.39533965
       73.03643       25.93793015        0.35710456
       73.13613       27.68753828        0.38755986
       73.23582       28.40248220        0.41387964
       73.33551       29.37212810        0.46641577
       73.43521       29.58699450        0.50840758
       73.53490       31.28155056        0.42160825
       73.63459       32.71772692        0.42417384
       73.73429       33.68818570        0.42717090
       73.83398       34.04782892        0.45466553
       73.93367       34.83770689        0.48352393
       74.03337       35.88087881        0.43241755
       74.13306       36.04780900        0.45655951
       74.23276       35.49481413        0.47361654
       74.33245       36.27271046        0.52633068
       74.43214       36.89824679        0.54842744
       74.53184       35.65389015        0.45744806
       74.63153       35.31498560        0.45171957
       74.73122       33.47766062        0.43638483
       74.83092       30.89361701        0.44293975
       74.93061       29.00408060        0.43440129
       75.03030       27.40472324        0.38067677
       75.13000       24.61527195        0.37289971
       75.22969       23.00264504        0.37555498
       75.32938       22.18991897        0.40399425
       75.42908       22.18088756        0.40905879
       75.52877       21.53442335        0.34951655
       75.62846       20.36202810        0.33750847
       75.72816       20.23917169        0.33663690
       75.82785       21.03292350        0.37184768
       75.92754       21.13264420        0.35244821
       76.02724       20.80421748        0.32621852
       76.12693       20.78529946        0.33918005
       76.22662       20.54521145        0.35578561
       76.32632       20.74268405        0.40368114
       76.42601       19.89880912        0.36993829
       76.52570       19.97791206        0.34087353
       76.62540       21.09331685        0.34998641
       76.72509       20.06566027        0.33838381
       76.82478       20.79977925        0.39761380
       76.92448       20.34882766        0.31251331
       77.02417       20.51916894        0.32457593
       77.12386       20.19451911        0.33755091
       77.22356       19.23953143        0.34941795
       77.32325       19.82188776        0.43373503
       77.42294       20.25189744        0.35097675
       77.52264       20.60428681        0.34745164
       77.62233       20.64666113        0.34607969
       77.72202       19.89679061        0.33889745
       77.82172       19.60279939        0.39296543
       77.92141       19.86846091        0.30330495
       78.02110       19.83172761        0.32621335
       78.12080       19.07558322        0.33929504
       78.22049       20.52516975        0.37442743
       78.32018       20.34244996        0.43412918
       78.41988       20.26609395        0.34249961
       78.51957       19.71478079        0.34799568
       78.61926       19.74905361        0.34592991
       78.71896       19.68829671        0.34602943
       78.81865       20.07457048        0.38935141
       78.91835       19.58120870        0.29647522
       79.01804       20.56677150        0.33460734
       79.11773       20.58031784        0.35072720
       79.21743       20.27852744        0.37212835
       79.31712       20.80475770        0.42446977
       79.41681       20.90474195        0.34311278
       79.51651       22.01184501        0.35840770
       79.61620       22.03767100        0.35892459
       79.71589       24.03284943        0.38842102
       79.81559       25.07530303        0.41934005
       79.91528       27.86995442        0.37587437
       80.01497       29.77330449        0.40493416
       80.11467       32.33551454        0.43979928
       80.21436       34.57694605        0.48550662
       80.31405       33.56275262        0.56776199
       80.41375       34.44308716        0.44018619
       80.51344       35.06686690        0.44210685
       80.61313       35.91450580        0.45953596
       80.71283       35.28113563        0.47328411
       80.81252       34.46466758        0.52702462
       80.91221       34.79371184        0.39513115
       81.01191       31.91650981        0.40539080
       81.11160       29.10554317        0.41677529
       81.21129       26.50510294        0.42927401
       81.31099       25.37106634        0.46764826
       81.41068       23.16957386        0.34785884
       81.51037       21.99769022        0.34760498
       81.61007       22.32434763        0.36991190
       81.70976       21.55772232        0.37670195
       81.80945       20.57496891        0.39132440
       81.90915       20.04463306        0.29420264
       82.00884       20.16365383        0.31581766
       82.10853       19.86708766        0.34926645
       82.20823       19.72925429        0.38500109
       82.30792       19.93445112        0.40466534
       82.40761       19.93796448        0.33073681
       82.50731       20.94730223        0.34305226
       82.60700       19.91145109        0.35810452
       82.70669       20.01300943        0.39096113
       82.80639       19.59928875        0.36869693
       82.90608       20.21907843        0.30351469
       83.00577       19.76488994        0.31738773
       83.10547       19.63643117        0.37149074
       83.20516       20.01716285        0.42026171
       83.30485       20.90157928        0.41042739
       83.40455       20.62938376        0.34024039
       83.50424       20.58460785        0.32989560
       83.60394       21.28466096        0.36940655
       83.70363       21.29396962        0.41530563
       83.80332       21.96187274        0.36912423
       83.90302       21.91336238        0.30819263
       84.00271       23.41575981        0.33169149
       84.10240       24.04889830        0.40697842
       84.20210       24.43994279        0.49840257
       84.30179       24.29120334        0.40410627
       84.40148       24.84598316        0.35900543
       84.50118       24.37991610        0.34921205
       84.60087       25.11429790        0.39952275
       84.70056       24.72563262        0.51554545
       84.80026       24.18125145        0.35617022
       84.89995       24.80453727        0.32566045
       84.99964       23.67880098        0.33112593
       85.09934       22.34303521        0.37893027
       85.19903       22.29448269        0.64815384
       85.29872       21.47218979        0.33459958
       85.39842       20.75986238        0.33434158
       85.49811       21.01538004        0.32683147
       85.59780       19.73527502        0.35469302
       85.69750       19.93530833        0.64126352
       85.79719       20.31351079        0.30917514
       85.89688       19.45722085        0.29547286
       85.99658       19.66367086        0.30407940
       86.09627       19.39699976        0.34608526
       86.19596       19.68736708        0.67287081
       86.29566       19.23288569        0.31301198
       86.39535       19.47538823        0.31833002
       86.49504       19.48327466        0.31336045
       86.59474       20.12028782        0.34429838
       86.69443       19.08233742        0.70234479
       86.79412       19.95984655        0.29903454
       86.89382       20.65070976        0.29630406
       86.99351       20.22312426        0.30441893
       87.09320       21.16382131        0.34541689
       87.19290       20.58835862        0.80815016
       87.29259       21.28258315        0.33084783
       87.39228       22.75337007        0.35049476
       87.49198       22.76560339        0.34350160
       87.59167       22.75874431        0.34760466
       87.69136       21.49442752        1.01022041
       87.79106       23.06941818        0.32465873
       87.89075       22.94743975        0.32118460
       87.99044       23.12037012        0.33371366
       88.09014       22.18032072        0.34707112
       88.18983       22.62814186        1.86599161
       88.28953       22.65051351        0.35730924
       88.38922       21.75006019        0.35345137
       88.48891       21.84311425        0.33824643
       88.58861       21.16406680        0.32134595
       88.68830       23.35585328        2.64634698
       88.78799       20.43113218        0.30457864
       88.88769       19.79417411        0.29130048
       88.98738       19.50565704        0.30183089
       89.08707       19.80989548        0.31483495
       89.18677       18.07737485        2.44979224
       89.28646       19.91296187        0.31981794
       89.38615       19.28749040        0.31584521
       89.48585       19.32810568        0.31019988
       89.58554       19.59411206        0.30473562
       89.68523       20.27937461        2.50599423
       89.78493       18.88305052        0.28888928
       89.88462       19.43799901        0.29058843
       89.98431       19.66724693        0.30168649
       90.08401       20.27200145        0.31510445
       90.18370       18.38230653        2.48278256
       90.28339       19.77627157        0.31741598
       90.38309       19.77336961        0.32230427
       90.48278       19.49633554        0.31285241
       90.58247       19.48779123        0.30774272
       90.68217       22.00217040        2.58292190
       90.78186       20.35601013        0.30513236
       90.88155       19.98498962        0.29477748
       90.98125       20.50418840        0.30692721
       91.08094       20.75880382        0.31872553
       91.18063       20.18957136        2.50557413
       91.28033       20.59448686        0.32619852
       91.38002       21.23394880        0.33838237
       91.47971       22.35870709        0.33891681
       91.57941       23.02657894        0.33758436
       91.67910       25.08615047        2.67050826
       91.77879       23.90634013        0.32951409
       91.87849       26.30886462        0.33868846
       91.97818       29.55258680        0.37297620
       92.07787       33.78703384        0.41404595
       92.17757       42.67624839        3.54029102
       92.27726       37.99047133        0.45255018
       92.37695       44.39954680        0.50573445
       92.47665       54.88167180        0.54138596
       92.57634       69.69936598        0.58880602
       92.67603       81.02201652        4.15751505
       92.77573       93.91648168        0.66153483
       92.87542      122.20827591        0.74292740
       92.97512      150.06569931        0.86150642
       93.07481      171.33952774        1.05361018
       93.17450      176.67491275        2.02005688
       93.27420      192.89263404        1.04658439
       93.37389      211.67562413        1.07030783
       93.47358      227.59953608        1.11915266
       93.57328      244.57873776        1.34709120
       93.67297      252.05628008        1.84655391
       93.77266      264.79366547        1.17516748
       93.87236      274.13337741        1.13683840
       93.97205      279.42634000        1.20965874
       94.07174      278.06623979        1.57838255
       94.17144      274.19936233        1.78955595
       94.27113      262.87063204        1.29318042
       94.37082      245.89235210        1.20801519
       94.47052      231.99999082        1.12390133
       94.57021      218.78841478        1.43604406
       94.66990      216.56453625        1.44105279
       94.76960      212.46894757        1.10366603
       94.86929      202.96151421        0.98939336
       94.96898      189.63527321        0.96824367
       95.06868      175.16152972        1.06478225
       95.16837      167.88749289        1.42096311
       95.26806      156.20965921        1.05615519
       95.36776      144.66188577        0.91882293
       95.46745      134.68442155        0.84967240
       95.56714      122.09491187        0.92527365
       95.66684      119.69476219        1.03608822
       95.76653      113.23269581        0.83639939
       95.86622       99.67020238        0.66619682
       95.96592       80.38276464        0.61439957
       96.06561       68.49104239        0.72479110
       96.16530       60.61985813        0.72260616
       96.26500       53.70596677        0.61039070
       96.36469       46.27369958        0.50452204
       96.46438       42.09434892        0.46773578
       96.56408       39.18723712        0.56326216
       96.66377       36.96560363        0.53112790
       96.76346       35.12249803        0.46105020
       96.86316       33.68448963        0.38947746
       96.96285       32.32336390        0.39347370
       97.06254       32.14099981        0.52875903
       97.16224       32.06915163        0.50543641
       97.26193       31.92636919        0.47161797
       97.36162       32.56780707        0.44582448
       97.46132       32.52222946        0.41385533
       97.56101       32.84928331        0.52529773
       97.66071       30.46444702        0.45242620
       97.76040       31.65574645        0.41932142
       97.86009       29.44837914        0.36435876
       97.95979       29.34373263        0.36963500
       98.05948       28.08912642        0.50563329
       98.15917       29.12745650        0.45992819
       98.25887       28.93484686        0.44046001
       98.35856       27.70830686        0.40504738
       98.45825       27.68258243        0.37640711
       98.55795       26.71481983        0.48235932
       98.65764       26.65824307        0.41289173
       98.75733       25.47033374        0.37515912
       98.85703       25.59281983        0.35056000
       98.95672       24.75426105        0.34598019
       99.05641       24.08394473        0.47580641
       99.15611       23.20525538        0.40054554
       99.25580       24.37306398        0.39600708
       99.35549       22.86911297        0.36436775
       99.45519       22.84723138        0.33908157
       99.55488       22.85367761        0.45266224
       99.65457       23.22064306        0.37583560
       99.75427       22.25553963        0.34448240
       99.85396       23.35120834        0.34003629
       99.95365       22.92707754        0.33022254
      100.05335       22.29769854        0.46152597
      100.15304       22.20090351        0.38676485
      100.25273       22.47138749        0.38459770
      100.35243       21.55544013        0.37382563
      100.45212       22.55242652        0.34884442
      100.55181       21.19912666        0.44505542
      100.65151       21.70436074        0.36830504
      100.75120       21.40480224        0.34050337
      100.85089       21.04357451        0.32191772
      100.95059       20.90516000        0.31166648
      101.05028       21.13125775        0.44702560
      101.14997       21.32546584        0.37002316
      101.24967       19.80943240        0.35129141
      101.34936       20.33398868        0.35749398
      101.44905       20.02660860        0.33646386
      101.54875       20.66304578        0.42954412
      101.64844       20.53601414        0.34839580
      101.74813       20.30238992        0.32485648
      101.84783       19.95679961        0.31215338
      101.94752       19.13412957        0.32193187
      102.04722       18.85034432        0.38397071
      102.14691       19.26571406        0.34946062
      102.24660       19.31808972        0.34706189
      102.34630       19.59158313        0.35217292
      102.44599       20.24712243        0.36327817
      102.54568       18.76999763        0.36602309
      102.64538       19.12326411        0.32942135
      102.74507       19.44381900        0.31551335
      102.84476       19.22457947        0.30730110
      102.94446       19.25156096        0.34877641
      103.04415       18.86661010        0.36876493
      103.14384       18.76721286        0.34464894
      103.24354       19.70034545        0.34829092
      103.34323       19.15681363        0.34000552
      103.44292       18.88343500        0.36524668
      103.54262       19.18762498        0.35738776
      103.64231       19.46510168        0.32682663
      103.74200       19.17226177        0.30881868
      103.84170       18.19949125        0.29494612
      103.94139       18.54841661        0.36166238
      104.04108       18.44660632        0.34929440
      104.14078       19.60404168        0.34887300
      104.24047       19.60709624        0.34799698
      104.34016       18.76708980        0.34185760
      104.43986       19.03244907        0.39208481
      104.53955       18.86581922        0.35192958
      104.63924       18.14744982        0.32361963
      104.73894       19.29663445        0.32079584
      104.83863       19.50788138        0.31310419
      104.93832       20.06894862        0.38460525
      105.03802       19.03014545        0.35145361
      105.13771       19.35901984        0.34107908
      105.23740       19.36541847        0.33982938
      105.33710       19.74208279        0.34390691
      105.43679       19.21710912        0.39496085
      105.53648       19.46713751        0.35764458
      105.63618       20.05155790        0.33390733
      105.73587       19.96657835        0.31874490
      105.83556       19.88577041        0.30927923
      105.93526       20.17336616        0.39403993
      106.03495       19.73340931        0.35289721
      106.13464       19.89084920        0.34196246
      106.23434       19.79606279        0.34313264
      106.33403       19.34883530        0.34286847
      106.43372       20.03608853        0.41736932
      106.53342       19.88453904        0.36220806
      106.63311       20.09914400        0.33112600
      106.73281       19.63503086        0.31079826
      106.83250       19.51903450        0.30452370
      106.93219       19.46524001        0.39353919
      107.03189       20.13654679        0.35475225
      107.13158       19.37037221        0.33694199
      107.23127       19.79118410        0.34694569
      107.33097       19.27470007        0.34251028
      107.43066       20.52172893        0.42590281
      107.53035       19.26756255        0.35460708
      107.63005       19.51593035        0.32475673
      107.72974       18.54372100        0.30323940
      107.82943       19.03830522        0.30295804
      107.92913       19.10645278        0.40118414
      108.02882       18.86044857        0.34941657
      108.12851       18.92666914        0.33459961
      108.22821       19.59435471        0.33568574
      108.32790       19.45439173        0.33016850
      108.42759       19.33364298        0.41733244
      108.52729       20.53492534        0.36478186
      108.62698       19.83198407        0.32402473
      108.72667       19.69804856        0.30951635
      108.82637       20.60161583        0.32436482
      108.92606       20.99116571        0.41682648
      109.02575       21.14963540        0.36604942
      109.12545       21.85741148        0.36245100
      109.22514       22.55475137        0.36727557
      109.32483       22.92217303        0.40267095
      109.42453       22.93542501        0.42462022
      109.52422       23.51317578        0.38789617
      109.62391       24.77035801        0.37834164
      109.72361       23.99922451        0.35653025
      109.82330       24.68146852        0.34022331
      109.92299       25.40173764        0.44893361
      110.02269       25.52376348        0.39239237
      110.12238       25.28127049        0.38763819
      110.22207       25.25651360        0.38410732
      110.32177       25.08855457        0.39024113
      110.42146       25.18130537        0.47382367
      110.52115       25.69515320        0.40727637
      110.62085       25.65166791        0.38510144
      110.72054       26.60026100        0.36827465
      110.82023       26.01862256        0.37482529
      110.91993       25.84469679        0.43399680
      111.01962       26.08006102        0.40282503
      111.11931       25.69551727        0.40168239
      111.21901       25.42405536        0.39154274
      111.31870       24.89968095        0.41961748
      111.41840       24.43469394        0.43271416
      111.51809       24.33234928        0.39393246
      111.61778       23.82370031        0.36697805
      111.71748       23.47659795        0.33762102
      111.81717       22.48850541        0.35757981
      111.91686       22.36081107        0.37476315
      112.01656       22.28088178        0.36524670
      112.11625       22.27674034        0.36747514
      112.21594       22.61151905        0.36949825
      112.31564       21.52137195        0.39947366
      112.41533       21.43737754        0.39146963
      112.51502       21.50854280        0.36047730
      112.61472       22.94671615        0.35488753
      112.71441       22.39616616        0.33012393
      112.81410       21.86150100        0.36456434
      112.91380       21.82760844        0.37064554
      113.01349       21.26768749        0.35884614
      113.11318       20.92887799        0.35621443
      113.21288       21.37792850        0.35947027
      113.31257       20.54157347        0.38930962
      113.41226       20.05910953        0.36481663
      113.51196       20.26534470        0.34477303
      113.61165       20.32411692        0.33322693
      113.71134       19.66365922        0.31210893
      113.81104       20.00095450        0.36070204
      113.91073       19.26878214        0.34509800
      114.01042       19.37045653        0.34309764
      114.11012       18.46205418        0.33433305
      114.20981       19.14772835        0.34198784
      114.30950       18.90637650        0.38504708
      114.40920       18.30990037        0.34974958
      114.50889       18.46460453        0.32878895
      114.60858       18.72389370        0.32110414
      114.70828       19.43568767        0.31614320
      114.80797       19.48887484        0.36082007
      114.90766       18.71801724        0.33276343
      115.00736       18.72562161        0.33058811
      115.10705       19.41554236        0.33774206
      115.20674       19.10122149        0.34020494
      115.30644       18.78341901        0.38642097
      115.40613       18.86595156        0.35123331
      115.50582       18.61537827        0.33007726
      115.60552       19.00132831        0.32291508
      115.70521       18.84934339        0.30959717
      115.80490       18.77134526        0.35948957
      115.90460       18.77731061        0.32524556
      116.00429       19.09683799        0.33188285
      116.10399       19.22520658        0.33514249
      116.20368       18.67927705        0.33763778
      116.30337       17.97782111        0.39561675
      116.40307       18.81811274        0.35389987
      116.50276       18.82770289        0.33532524
      116.60245       19.06414588        0.32439959
      116.70215       19.10905873        0.31294753
      116.80184       18.95449809        0.36973235
      116.90153       19.54563718        0.33800004
      117.00123       19.45191209        0.33418894
      117.10092       18.94861503        0.33846304
      117.20061       19.74296974        0.35080248
      117.30031       19.25712642        0.41652794
      117.40000       19.14438669        0.34788877
      117.49969       19.76980433        0.33561052
      117.59939       19.98384132        0.32198515
      117.69908       19.88352900        0.31090864
      117.79877       20.34264484        0.38566688
      117.89847       21.76886225        0.34651595
      117.99816       21.89729859        0.35260675
      118.09785       23.14076769        0.37137495
      118.19755       24.22687153        0.39704678
      118.29724       24.38978824        0.43420863
      118.39693       26.36503730        0.41196973
      118.49663       27.06254120        0.39261003
      118.59632       28.84008882        0.39018444
      118.69601       31.43520062        0.42594109
      118.79571       34.39454896        0.48226922
      118.89540       38.27229734        0.47590487
      118.99509       41.62669852        0.49671922
      119.09479       47.26034966        0.53393577
      119.19448       54.88509784        0.62758323
      119.29417       60.29504706        0.68469210
      119.39387       67.88859881        0.66968229
      119.49356       77.42374378        0.67387027
      119.59325       87.57016284        0.69867184
      119.69295      100.15989042        0.79235273
      119.79264      110.79218812        0.84571571
      119.89233      123.10359246        0.86584732
      119.99203      136.07297122        0.89095340
      120.09172      147.96874634        0.94996354
      120.19141      159.01585950        1.10714396
      120.29111      168.67051634        1.12856999
      120.39080      176.56886528        1.10467487
      120.49049      186.04448253        1.05964468
      120.59019      197.00104204        1.06164630
      120.68988      207.44062053        1.17628889
      120.78958      213.36686475        1.16613921
      120.88927      220.76508202        1.16806384
      120.98896      227.14176261        1.17377357
      121.08866      235.07726119        1.20096291
      121.18835      240.74700568        1.39782688
      121.28804      246.88263892        1.38128317
      121.38774      251.02963745        1.32212024
      121.48743      256.09516397        1.26547477
      121.58712      255.77535375        1.20555570
      121.68682      249.77459043        1.31057686
      121.78651      250.39782736        1.25229777
      121.88620      247.76767162        1.22967581
      121.98590      240.56213125        1.21751577
      122.08559      229.15117893        1.20883532
      122.18528      228.07130652        1.40786436
      122.28498      220.27257330        1.29737834
      122.38467      206.90119499        1.19977021
      122.48436      196.53791973        1.10348035
      122.58406      183.90469982        1.00755584
      122.68375      172.39544634        1.10227195
      122.78344      161.87405596        1.00085493
      122.88314      150.14753697        0.95502631
      122.98283      141.04830550        0.94403819
      123.08252      132.72489671        0.91112945
      123.18222      123.62293367        1.02218412
      123.28191      115.81173001        0.89514324
      123.38160      107.98346754        0.83319534
      123.48130       98.72649166        0.76543534
      123.58099       91.41763535        0.68695691
      123.68068       84.10752788        0.75055408
      123.78038       79.10923395        0.65659249
      123.88007       72.74719549        0.61739076
      123.97976       66.03708872        0.59693939
      124.07946       59.83648502        0.56099892
      124.17915       54.90276606        0.60445953
      124.27884       50.26153455        0.51729753
      124.37854       47.53521705        0.47293268
      124.47823       43.90270159        0.44449238
      124.57792       39.13405371        0.44673398
