        5.04553       36.90340862        0.96029571
        5.14523       35.20494286        0.89710851
        5.24492       35.36967820        0.88684774
        5.34461       35.71534758        0.82047863
        5.44431       35.33179829        0.89250202
        5.54400       35.16931156        0.74217290
        5.64369       34.75475409        0.74136772
        5.74339       34.59320313        0.66290643
        5.84308       34.51874420        0.67020586
        5.94277       34.81672735        0.67139520
        6.04247       35.36137322        0.65640881
        6.14216       34.43216152        0.59616178
        6.24185       33.60931507        0.60685473
        6.34155       34.00483532        0.58243864
        6.44124       35.20672870        0.62492793
        6.54093       34.46837864        0.58620237
        6.64063       35.26374829        0.56210200
        6.74032       36.41520838        0.57135519
        6.84001       35.27923827        0.55904110
        6.93971       34.38134612        0.55655616
        7.03940       33.89144474        0.51470091
        7.13909       35.59793169        0.52534075
        7.23879       35.15873725        0.51466130
        7.33848       34.70539703        0.51917006
        7.43817       34.23038523        0.50467366
        7.53787       34.29505212        0.49862422
        7.63756       34.75185003        0.47874650
        7.73725       35.49151107        0.50310824
        7.83695       36.12264914        0.49109582
        7.93664       35.36128446        0.50680699
        8.03633       35.14578809        0.45490982
        8.13603       34.90319527        0.44802184
        8.23572       34.95772308        0.45719309
        8.33541       35.82284224        0.45829971
        8.43511       35.30238981        0.48132395
        8.53480       35.45982677        0.44699646
        8.63449       35.52760598        0.44329459
        8.73419       36.22334717        0.43707759
        8.83388       36.11566459        0.43887822
        8.93357       35.77207462        0.43578084
        9.03327       35.67987717        0.42385733
        9.13296       35.75218389        0.42210003
        9.23265       36.61659328        0.43254519
        9.33235       36.10419734        0.44207503
        9.43204       35.80228175        0.43848537
        9.53174       36.45650891        0.42525010
        9.63143       35.68759973        0.43478064
        9.73112       36.57978621        0.44032089
        9.83082       36.85664704        0.46119472
        9.93051       37.09688055        0.45583501
       10.03020       36.40930449        0.43646184
       10.12990       37.44015632        0.43210554
       10.22959       36.20457605        0.44204829
       10.32928       36.87144050        0.46482350
       10.42898       36.75466333        0.45809372
       10.52867       37.85664530        0.44976723
       10.62836       37.43837855        0.44713424
       10.72806       37.81380526        0.45499475
       10.82775       38.22376597        0.45636211
       10.92744       37.74814751        0.46020915
       11.02714       38.15107561        0.44196000
       11.12683       38.52012808        0.45906214
       11.22652       38.26792787        0.46289175
       11.32622       38.70225945        0.47784286
       11.42591       38.28750461        0.45857335
       11.52560       39.75607487        0.46217036
       11.62530       38.34493873        0.45779806
       11.72499       40.92179894        0.48174387
       11.82468       39.57040343        0.48638696
       11.92438       39.94331864        0.46436722
       12.02407       40.13510480        0.46027740
       12.12376       40.77061064        0.46676032
       12.22346       40.60767905        0.49426638
       12.32315       40.75730338        0.50001956
       12.42284       40.96549285        0.47798283
       12.52254       40.52451387        0.47158448
       12.62223       40.88141069        0.48681574
       12.72192       41.13310939        0.47443690
       12.82162       41.49911135        0.51483788
       12.92131       41.85993925        0.47473702
       13.02100       41.96662618        0.46977298
       13.12070       42.28332722        0.47934810
       13.22039       42.08364106        0.49219040
       13.32008       43.01435019        0.51663008
       13.41978       43.58803848        0.49444396
       13.51947       44.41511692        0.50846360
       13.61916       44.78532058        0.49299662
       13.71886       44.56345936        0.51568271
       13.81855       46.05450068        0.53231276
       13.91824       46.26479224        0.50214412
       14.01794       46.02513492        0.48990812
       14.11763       46.68258323        0.51104979
       14.21733       48.21885145        0.52212305
       14.31702       48.72128266        0.55128853
       14.41671       48.95805182        0.53601382
       14.51641       50.54951769        0.52983941
       14.61610       52.62396898        0.54350246
       14.71579       52.86981334        0.55474232
       14.81549       54.70400651        0.59210776
       14.91518       56.35862625        0.54969352
       15.01487       60.63995874        0.58102782
       15.11457       65.37438983        0.61108608
       15.21426       72.66175849        0.66475660
       15.31395       79.15518800        0.71299410
       15.41365       86.41708088        0.72194010
       15.51334      105.07365992        0.77502386
       15.61303      121.98222989        0.86281645
       15.71273      147.10598989        0.93554264
       15.81242      172.30772455        1.06710176
       15.91211      183.56123673        1.06481965
       16.01181      230.34076645        1.15699684
       16.11150      281.23843776        1.32985266
       16.21119      353.07967586        1.55376426
       16.31089      431.18832241        1.74437213
       16.41058      507.35882386        1.87859335
       16.51027      634.22517525        2.18499962
       16.60997      831.74625980        2.49300879
       16.70966     1051.76043198        2.97042392
       16.80935     1186.86911218        3.25643619
       16.90905     1376.01444640        3.49134063
       17.00874     1244.31521614        3.12349967
       17.10843     1001.19286000        2.86697082
       17.20813      783.09437089        2.46873692
       17.30782      598.33910043        2.11000608
       17.40751      405.81102126        1.67837971
       17.50721      306.63923822        1.38747812
       17.60690      221.17649677        1.19758095
       17.70659      168.26304553        1.03853250
       17.80629      124.97949522        0.89778889
       17.90598       96.65303764        0.73443739
       18.00567       80.01479157        0.67798737
       18.10537       69.99377872        0.61564310
       18.20506       63.97348382        0.64395153
       18.30475       60.65389722        0.59770873
       18.40445       56.35585735        0.56012420
       18.50414       55.93263617        0.57625865
       18.60384       54.28873546        0.55847745
       18.70353       52.29184209        0.57959081
       18.80322       50.66024668        0.53653630
       18.90292       50.25337951        0.52898190
       19.00261       49.22471384        0.50752375
       19.10230       48.31606172        0.53580045
       19.20200       46.71866832        0.53898142
       19.30169       46.31611762        0.51735398
       19.40138       45.43559699        0.50763297
       19.50108       44.71192276        0.51496762
       19.60077       44.84682614        0.51061802
       19.70046       43.93994352        0.52961786
       19.80016       42.43293959        0.49268730
       19.89985       43.07500758        0.48195589
       19.99954       41.54006286        0.47786011
       20.09924       43.08714650        0.49280262
       20.19893       41.17154079        0.51477638
       20.29862       41.41298982        0.48906754
       20.39832       40.04261405        0.49614608
       20.49801       39.97094277        0.48622963
       20.59770       39.21928699        0.49139241
       20.69740       38.90764885        0.50675879
       20.79709       38.56866608        0.48043726
       20.89678       37.37074469        0.46086290
       20.99648       37.38358748        0.46849583
       21.09617       37.40594856        0.48929345
       21.19586       36.69608348        0.48433001
       21.29556       36.42700629        0.47151288
       21.39525       36.59918712        0.47335740
       21.49494       36.15411308        0.46220520
       21.59464       36.79350803        0.47646707
       21.69433       34.97318710        0.48349707
       21.79402       36.13233206        0.44875980
       21.89372       35.31964728        0.43460015
       21.99341       34.28600701        0.44624560
       22.09310       35.33401251        0.45504836
       22.19280       34.63364540        0.47769946
       22.29249       34.62411338        0.44570898
       22.39218       34.44750640        0.45431208
       22.49188       34.65409125        0.45624056
       22.59157       34.63890470        0.46204780
       22.69126       33.57618842        0.47794183
       22.79096       34.83328146        0.43994591
       22.89065       34.68632665        0.42895573
       22.99034       34.32906881        0.43845648
       23.09004       33.87230851        0.45483283
       23.18973       34.76421793        0.46006036
       23.28943       34.88508969        0.45411030
       23.38912       34.36072952        0.45517192
       23.48881       34.84412457        0.46072211
       23.58851       34.25659898        0.46257200
       23.68820       34.38449613        0.48804759
       23.78789       34.23632147        0.43359262
       23.88759       34.28810674        0.44011588
       23.98728       33.49960882        0.44386364
       24.08697       33.86735727        0.43763977
       24.18667       31.91236557        0.45540414
       24.28636       32.53265913        0.43623511
       24.38605       32.29002106        0.44402860
       24.48575       32.86397679        0.44733485
       24.58544       32.21642401        0.45631169
       24.68513       32.16213688        0.45603123
       24.78483       33.05002433        0.42611406
       24.88452       33.02447821        0.42492837
       24.98421       32.67470223        0.43715091
       25.08391       33.03898064        0.44875375
       25.18360       32.16182761        0.45223619
       25.28329       31.93435956        0.43436569
       25.38299       32.49906874        0.43691392
       25.48268       32.30288621        0.43816226
       25.58237       32.79087213        0.45936208
       25.68207       31.69847780        0.44245050
       25.78176       32.57878428        0.42170783
       25.88145       32.35062224        0.43140357
       25.98115       32.06973420        0.43411162
       26.08084       31.74216138        0.44253125
       26.18053       33.01381476        0.46379834
       26.28023       32.00599030        0.43207342
       26.37992       32.59539188        0.43637763
       26.47961       31.80661630        0.44515243
       26.57931       31.77850514        0.46433172
       26.67900       31.69885227        0.43397066
       26.77869       32.42408970        0.43586105
       26.87839       31.44799821        0.42453398
       26.97808       32.17411535        0.42672844
       27.07777       31.85244490        0.45741095
       27.17747       31.81775609        0.43644309
       27.27716       33.04272713        0.43364336
       27.37685       32.10903701        0.44409824
       27.47655       32.32421596        0.43866518
       27.57624       32.24841119        0.45775205
       27.67593       32.38904148        0.44928012
       27.77563       32.41089922        0.43027809
       27.87532       31.94448237        0.42002177
       27.97502       32.54864394        0.43254123
       28.07471       32.66713900        0.45924944
       28.17440       32.34421031        0.43707227
       28.27410       32.40781962        0.43658891
       28.37379       32.18066070        0.44548405
       28.47348       32.47016230        0.44459925
       28.57318       33.53344249        0.48956497
       28.67287       33.22225688        0.43442974
       28.77256       33.19945937        0.42629569
       28.87226       32.57106168        0.43256516
       28.97195       33.46309571        0.44019133
       29.07164       32.83054298        0.47453888
       29.17134       32.66970151        0.43122548
       29.27103       33.20215036        0.44179137
       29.37072       33.63122356        0.46298890
       29.47042       34.05328023        0.45921670
       29.57011       33.85688270        0.48455157
       29.66980       33.55674960        0.43985062
       29.76950       33.67988288        0.44042564
       29.86919       33.88949622        0.43297301
       29.96888       34.95934345        0.45996050
       30.06858       33.80492929        0.46689856
       30.16827       34.33744072        0.44521472
       30.26796       34.67031864        0.44789640
       30.36766       35.77100872        0.46433763
       30.46735       35.87248073        0.46900725
       30.56704       35.90640291        0.49371822
       30.66674       36.95611880        0.46768577
       30.76643       37.23458264        0.45836758
       30.86612       39.37964970        0.48133559
       30.96582       39.32152485        0.48446466
       31.06551       41.94912534        0.52505380
       31.16520       43.94373770        0.50544481
       31.26490       48.55023693        0.52754736
       31.36459       55.94096684        0.57518634
       31.46428       71.23516324        0.67860477
       31.56398       94.29981961        0.79345112
       31.66367      115.27494087        0.82351122
       31.76336      160.95076952        0.98256344
       31.86306      247.00307877        1.22540113
       31.96275      353.99623447        1.52950060
       32.06244      426.30801288        1.75986488
       32.16214      497.45116817        1.80858801
       32.26183      471.48229446        1.79576126
       32.36152      384.19014971        1.65410051
       32.46122      289.54417148        1.43149990
       32.56091      213.18693917        1.23405110
       32.66061      139.73181797        0.93701846
       32.76030      104.46451688        0.78770179
       32.85999       91.76804262        0.74785389
       32.95969      102.55887659        0.80036381
       33.05938      134.95155149        0.94033856
       33.15907      188.65528927        1.05968731
       33.25877      292.39374099        1.38591153
       33.35846      454.15234224        1.78837911
       33.45815      656.12005797        2.31446159
       33.55785      836.11952662        2.69755430
       33.65754     1055.39864966        2.92538009
       33.75723     1139.25288486        3.08034362
       33.85693     1031.46948166        2.89446038
       33.95662      866.15988411        2.65871798
       34.05631      715.45474595        2.33963095
       34.15601      571.80095918        2.00159466
       34.25570      470.19610857        1.78548265
       34.35539      362.71000937        1.57644164
       34.45509      272.70203902        1.42092999
       34.55478      197.04339553        1.12167170
       34.65447      123.32340788        0.84131525
       34.75417       85.71738232        0.70805858
       34.85386       65.03861629        0.60688194
       34.95355       54.24178438        0.57090528
       35.05325       49.83206922        0.56539697
       35.15294       47.98911532        0.52335058
       35.25263       44.40913271        0.51188810
       35.35233       43.13747303        0.51899365
       35.45202       41.97697192        0.53463635
       35.55171       41.19734705        0.51625637
       35.65141       39.57915086        0.48847501
       35.75110       37.54768949        0.47141743
       35.85079       37.67564026        0.47007339
       35.95049       36.46393426        0.47395894
       36.05018       35.58269757        0.46051575
       36.14987       35.66465953        0.44307256
       36.24957       34.36805557        0.45393133
       36.34926       34.30276963        0.46227722
       36.44895       32.61293867        0.45875383
       36.54865       33.08318867        0.44436064
       36.64834       32.05438038        0.42794187
       36.74803       33.15724164        0.44145562
       36.84773       31.96046864        0.43082630
       36.94742       31.37186962        0.46227430
       37.04711       31.73636863        0.40943894
       37.14681       31.73490983        0.41846140
       37.24650       30.60488252        0.42127233
       37.34620       30.87317913        0.43434505
       37.44589       31.09394838        0.46640264
       37.54558       29.73077312        0.41570309
       37.64528       30.32014492        0.42020015
       37.74497       30.60553161        0.41520369
       37.84466       30.14754738        0.43635452
       37.94436       29.54896785        0.44057890
       38.04405       30.09490780        0.40222613
       38.14374       30.01142098        0.40514257
       38.24344       30.13037286        0.41217823
       38.34313       31.25147443        0.43813019
       38.44282       30.66929415        0.46960744
       38.54252       32.04746028        0.43030359
       38.64221       32.45389250        0.43266795
       38.74190       33.47916877        0.44387872
       38.84160       38.32843136        0.47665617
       38.94129       42.85546898        0.52937720
       39.04098       50.65825415        0.51805697
       39.14068       58.11446964        0.57715051
       39.24037       63.32920535        0.60284497
       39.34006       61.75034615        0.61775804
       39.43976       56.73895429        0.64439006
       39.53945       52.20937910        0.55305964
       39.63914       43.25194247        0.50074278
       39.73884       36.53742528        0.46139091
       39.83853       32.72422156        0.43314531
       39.93822       31.08402237        0.44721241
       40.03792       29.97680400        0.40074749
       40.13761       30.14544127        0.40306052
       40.23730       30.31273377        0.41902668
       40.33700       30.30683013        0.43177546
       40.43669       31.38654780        0.45945768
       40.53638       31.22387120        0.42588955
       40.63608       31.25845639        0.43403033
       40.73577       31.17579802        0.43106733
       40.83546       31.49860635        0.43718389
       40.93516       31.64051545        0.44665246
       41.03485       31.50590607        0.42038938
       41.13454       30.38545804        0.41341693
       41.23424       29.77601784        0.41901025
       41.33393       29.97978370        0.43934784
       41.43362       29.87773535        0.45265024
       41.53332       30.34349046        0.42606835
       41.63301       30.38846834        0.43453839
       41.73270       30.22679661        0.42383972
       41.83240       29.79240745        0.43349722
       41.93209       31.25427054        0.44123489
       42.03179       32.51328662        0.41082690
       42.13148       33.30092638        0.43693421
       42.23117       36.69530700        0.45919018
       42.33087       41.03090908        0.51998841
       42.43056       51.95948386        0.57460522
       42.53025       63.93112460        0.61825524
       42.62995       91.53531388        0.74871797
       42.72964      131.63200876        0.90956450
       42.82933      178.79655685        1.08840693
       42.92903      221.36272839        1.17741752
       43.02872      257.42805138        1.21180668
       43.12841      248.60320541        1.21152260
       43.22811      210.59551804        1.16241848
       43.32780      163.28496859        1.06719839
       43.42749      121.59190715        0.89550938
       43.52719       81.40065340        0.70012249
       43.62688       54.55409267        0.56808301
       43.72657       42.93163471        0.51496922
       43.82627       36.14890924        0.49372761
       43.92596       33.21460970        0.42762101
       44.02565       30.52785286        0.40663379
       44.12535       31.15081527        0.42556089
       44.22504       29.48565663        0.43095495
       44.32473       29.12163267        0.45183850
       44.42443       29.01096747        0.43308882
       44.52412       28.43677681        0.41619092
       44.62381       28.94446195        0.42641323
       44.72351       28.60976254        0.40996833
       44.82320       27.65798655        0.45082218
       44.92289       27.24705684        0.37233585
       45.02259       27.86319654        0.37976049
       45.12228       27.67633067        0.39174268
       45.22197       26.41961267        0.39204245
       45.32167       26.69498763        0.43619628
       45.42136       26.81298767        0.39836941
       45.52105       26.90174978        0.39534792
       45.62075       26.32971701        0.39594474
       45.72044       26.26440220        0.39423324
       45.82013       25.51735867        0.42424496
       45.91983       25.81908589        0.36404591
       46.01952       26.06900436        0.37540496
       46.11921       25.84579589        0.37447991
       46.21891       26.37249636        0.39733473
       46.31860       25.03789916        0.41830260
       46.41830       26.19842322        0.39530897
       46.51799       25.43055876        0.39006538
       46.61768       25.17675526        0.38609927
       46.71738       25.79818010        0.40165608
       46.81707       26.06865708        0.41915912
       46.91676       25.38535388        0.36190417
       47.01646       25.86913838        0.37511865
       47.11615       26.35523576        0.38647728
       47.21584       25.63955583        0.39280314
       47.31554       25.71619767        0.42726215
       47.41523       26.26795615        0.40464185
       47.51492       26.33727419        0.40693509
       47.61462       26.19612013        0.40406378
       47.71431       26.43749711        0.41070639
       47.81400       25.54090455        0.41478617
       47.91370       25.29628701        0.36269481
       48.01339       25.24102078        0.36145401
       48.11308       24.98498002        0.37173359
       48.21278       25.09197630        0.38766120
       48.31247       25.10618353        0.39993964
       48.41216       24.80676511        0.37189031
       48.51186       24.63219668        0.38324128
       48.61155       24.62274086        0.38129300
       48.71124       25.34039603        0.39472360
       48.81094       24.81221199        0.38817176
       48.91063       24.82253264        0.34691228
       49.01032       24.22115446        0.35291714
       49.11002       24.48501483        0.36827921
       49.20971       24.08688542        0.38466382
       49.30940       24.94248615        0.40444588
       49.40910       25.47682640        0.38901897
       49.50879       24.48693334        0.38870659
       49.60848       24.83848563        0.39536629
       49.70818       24.74697955        0.40996689
       49.80787       24.36435684        0.39458640
       49.90756       25.08035580        0.36313969
       50.00726       25.16227748        0.37214209
       50.10695       25.86752071        0.38660191
       50.20664       25.78787940        0.40462232
       50.30634       25.60267279        0.42207537
       50.40603       25.99446784        0.39865619
       50.50572       26.38021885        0.40177967
       50.60542       25.80853358        0.39777518
       50.70511       26.79872980        0.41645946
       50.80480       27.69121255        0.41532753
       50.90450       27.03774259        0.37186792
       51.00419       27.97847572        0.38337821
       51.10389       29.05496463        0.40382885
       51.20358       30.11267994        0.43811946
       51.30327       32.33585876        0.45146478
       51.40297       37.51471655        0.46593473
       51.50266       45.60646497        0.51772545
       51.60235       58.31306181        0.59824408
       51.70205       76.34864607        0.73116261
       51.80174       96.35270383        0.76061079
       51.90143      123.08377556        0.80836333
       52.00113      141.36200400        0.87205623
       52.10082      149.66103487        0.92954940
       52.20051      146.04438201        1.00753287
       52.30021      138.61739387        0.94135455
       52.39990      120.33583659        0.85680988
       52.49959       97.86097114        0.78372450
       52.59929       81.74073682        0.72721836
       52.69898       67.01145583        0.72093976
       52.79867       53.89990657        0.54450244
       52.89837       40.54327641        0.45371907
       52.99806       34.60139514        0.42511371
       53.09775       30.57704578        0.41090024
       53.19745       28.32462111        0.45204169
       53.29714       27.53346994        0.39372941
       53.39683       27.30277736        0.40835150
       53.49653       26.71056335        0.40727122
       53.59622       26.01406107        0.40190601
       53.69591       26.04112139        0.44204518
       53.79561       26.66556976        0.37422801
       53.89530       25.71842689        0.36239764
       53.99499       25.58773099        0.36775109
       54.09469       25.29793393        0.38352459
       54.19438       25.18943298        0.41693471
       54.29407       25.80509130        0.38990164
       54.39377       25.41615507        0.38998818
       54.49346       25.21826085        0.38922804
       54.59315       24.19992961        0.38719582
       54.69285       24.12142068        0.41196212
       54.79254       24.79225227        0.35773210
       54.89223       24.92409567        0.35545578
       54.99193       24.57309357        0.36389717
       55.09162       24.85609108        0.38237696
       55.19131       24.74803455        0.41102455
       55.29101       25.30678467        0.38688385
       55.39070       24.90277090        0.39546730
       55.49039       25.22965154        0.39554751
       55.59009       25.18300441        0.40734349
       55.68978       25.52558947        0.41996527
       55.78948       25.62530834        0.36713468
       55.88917       27.32693215        0.38005997
       55.98886       29.77265753        0.40077712
       56.08856       32.61119775        0.43393762
       56.18825       34.51169205        0.48264934
       56.28794       36.96615791        0.45633914
       56.38764       39.17316621        0.48516854
       56.48733       40.64178142        0.50023187
       56.58702       41.72345482        0.52098426
       56.68672       42.13338210        0.54064948
       56.78641       42.43500500        0.46866339
       56.88610       41.80247524        0.46983887
       56.98580       40.73059330        0.46400766
       57.08549       40.84311871        0.49312195
       57.18518       38.86982287        0.49827632
       57.28488       37.22078439        0.45299787
       57.38457       34.40949756        0.46099968
       57.48426       32.68255828        0.45870445
       57.58396       31.17749624        0.46051991
       57.68365       28.29734887        0.44429361
       57.78334       25.63166443        0.36967106
       57.88304       25.27344160        0.37133059
       57.98273       25.17395363        0.37601898
       58.08242       24.68830977        0.40100983
       58.18212       24.78246267        0.40984138
       58.28181       25.17453284        0.38757832
       58.38150       25.96223150        0.41474015
       58.48120       27.22981940        0.43548388
       58.58089       28.26831143        0.44976152
       58.68058       30.98491122        0.46096865
       58.78028       36.39109284        0.43624356
       58.87997       44.67634017        0.47510279
       58.97966       57.41822531        0.55853921
       59.07936       69.29485013        0.65535163
       59.17905       78.58550835        0.70933377
       59.27874       90.69027393        0.72729252
       59.37844       92.72029608        0.76052891
       59.47813       92.03782077        0.78912150
       59.57782       86.43984237        0.79731884
       59.67752       77.61855376        0.70146089
       59.77721       63.33951745        0.58013327
       59.87690       47.03278165        0.49409428
       59.97660       37.20612354        0.45991361
       60.07629       31.40622247        0.45803902
       60.17598       28.19369961        0.41582934
       60.27568       26.48628669        0.39113548
       60.37537       25.41809270        0.38992986
       60.47507       24.03713301        0.39395903
       60.57476       23.06299405        0.42348926
       60.67445       23.53303063        0.36609615
       60.77415       23.96638411        0.35082936
       60.87384       23.31035159        0.34144536
       60.97353       23.60289815        0.36293712
       61.07323       23.79502784        0.41078208
       61.17292       23.24343629        0.35086534
       61.27261       22.86244815        0.35948064
       61.37231       23.27801555        0.37525198
       61.47200       23.21972565        0.38999410
       61.57169       22.65578847        0.43797200
       61.67139       23.06325033        0.36092899
       61.77108       23.69984962        0.35855611
       61.87077       23.64445365        0.35558383
       61.97047       23.50215551        0.36743278
       62.07016       23.06756713        0.41206285
       62.16985       22.38702653        0.35553014
       62.26955       22.48006560        0.36980108
       62.36924       22.76543621        0.38464839
       62.46893       22.74385876        0.39914563
       62.56863       23.52045462        0.45669984
       62.66832       22.11413592        0.35941056
       62.76801       22.99627293        0.35715774
       62.86771       22.88701885        0.34793853
       62.96740       22.66329897        0.35564264
       63.06709       23.11024609        0.40019822
       63.16679       22.86881738        0.35116712
       63.26648       22.64229005        0.36093307
       63.36617       23.37753555        0.38273970
       63.46587       23.13381091        0.39421675
       63.56556       23.41180488        0.42249102
       63.66525       23.11992282        0.35508792
       63.76495       23.21507839        0.34541748
       63.86464       23.55525292        0.34581518
       63.96433       23.36288287        0.35998913
       64.06403       23.15448780        0.38252369
       64.16372       23.52897437        0.35848604
       64.26341       23.97786935        0.37953530
       64.36311       23.41743167        0.38272704
       64.46280       23.86210034        0.40794379
       64.56249       24.07776055        0.41611423
       64.66219       23.77868351        0.36122729
       64.76188       23.97381340        0.35732326
       64.86157       23.64072145        0.35294249
       64.96127       24.18373758        0.37563415
       65.06096       25.26110865        0.41699904
       65.16066       24.94094495        0.37579233
       65.26035       25.75737918        0.38970638
       65.36004       25.52023560        0.40360485
       65.45974       25.73645285        0.41824396
       65.55943       27.04693929        0.44804124
       65.65912       28.29174463        0.39687903
       65.75882       28.59175529        0.39527213
       65.85851       31.78100122        0.41739059
       65.95820       34.25049285        0.45670490
       66.05790       37.57359285        0.49487971
       66.15759       42.03528819        0.49764419
       66.25728       46.72539756        0.54042286
       66.35698       52.53686053        0.59580747
       66.45667       58.52833405        0.66772987
       66.55636       67.29124240        0.71402222
       66.65606       79.09636142        0.68926166
       66.75575      104.20044119        0.78212246
       66.85544      143.81202043        0.91904032
       66.95514      199.25107209        1.13639844
       67.05483      260.84128596        1.32243633
       67.15452      345.31882930        1.46825185
       67.25422      437.70606751        1.75847731
       67.35391      516.47257885        2.02489616
       67.45360      579.38491773        2.29739304
       67.55330      627.94189346        2.32813813
       67.65299      673.86294403        2.19391105
       67.75268      681.33454437        2.18143046
       67.85238      664.66072675        2.16990178
       67.95207      624.80727385        2.23107875
       68.05176      564.75926076        1.98541148
       68.15146      479.75541293        1.77890646
       68.25115      402.38251535        1.70582893
       68.35084      348.72045333        1.65152503
       68.45054      312.01999555        1.71772483
       68.55023      274.02568417        1.37702783
       68.64992      222.64497552        1.14033492
       68.74962      169.88543047        0.99449601
       68.84931      121.44704360        0.84400717
       68.94900       95.28125867        0.84052480
       69.04870       66.22962993        0.58585832
       69.14839       49.92957151        0.52566966
       69.24808       42.30176360        0.52096149
       69.34778       35.94729726        0.49447324
       69.44747       34.58140892        0.56012015
       69.54716       31.14351118        0.41395347
       69.64686       28.73808951        0.39114078
       69.74655       27.26889512        0.38288228
       69.84625       25.89245920        0.38176291
       69.94594       26.49527577        0.43592707
       70.04563       25.50881411        0.35493547
       70.14533       25.83345408        0.37280817
       70.24502       26.26057524        0.40145992
       70.34471       26.67055031        0.42767952
       70.44441       26.90668335        0.50454969
       70.54410       28.29156844        0.40462988
       70.64379       28.72811494        0.40521342
       70.74349       28.58987873        0.41018182
       70.84318       29.57895004        0.43700788
       70.94287       30.29282334        0.48826757
       71.04257       29.81919426        0.39979529
       71.14226       29.35439696        0.41086774
       71.24195       28.95716925        0.42852825
       71.34165       28.43930738        0.44827613
       71.44134       26.82659502        0.48447951
       71.54103       25.72680543        0.38599934
       71.64073       25.45781984        0.37665899
       71.74042       24.85156670        0.36806811
       71.84011       24.80654031        0.38135036
       71.93981       24.68012226        0.41368938
       72.03950       24.32426617        0.34627014
       72.13919       24.19109199        0.35978187
       72.23889       23.78070328        0.37065669
       72.33858       22.53297031        0.40192738
       72.43827       23.49097168        0.45121174
       72.53797       23.70260618        0.36922950
       72.63766       23.91068959        0.36393160
       72.73735       23.54275060        0.35207538
       72.83705       23.31596938        0.36904183
       72.93674       24.61700352        0.40247009
       73.03643       25.66912432        0.35539796
       73.13613       26.92559618        0.38230979
       73.23582       28.53072874        0.41502126
       73.33551       30.32571901        0.47424729
       73.43521       30.97573062        0.52060236
       73.53490       30.77792538        0.41835436
       73.63459       32.27731361        0.42146973
       73.73429       33.35098495        0.42519873
       73.83398       34.42972679        0.45746183
       73.93367       34.33111075        0.48017138
       74.03337       35.31222839        0.42912886
       74.13306       36.52724359        0.45984969
       74.23276       37.85934895        0.48961345
       74.33245       36.17009900        0.52582307
       74.43214       36.21937109        0.54353808
       74.53184       35.37820545        0.45586527
       74.63153       35.10406570        0.45056178
       74.73122       33.67369383        0.43788617
       74.83092       30.85092084        0.44283955
       74.93061       29.61962551        0.43925234
       75.03030       27.17565364        0.37924413
       75.13000       24.48631279        0.37208835
       75.22969       23.38265352        0.37885519
       75.32938       21.74533111        0.40007929
       75.42908       22.08916069        0.40839852
       75.52877       21.90273822        0.35268834
       75.62846       21.12154571        0.34396481
       75.72816       20.31979179        0.33747323
       75.82785       20.84979946        0.37038735
       75.92754       20.57596899        0.34789965
       76.02724       20.38883476        0.32307076
       76.12693       20.82300894        0.33965206
       76.22662       20.34688746        0.35421801
       76.32632       20.10630019        0.39757603
       76.42601       20.54369543        0.37611574
       76.52570       19.16968135        0.33400886
       76.62540       20.42987382        0.34455391
       76.72509       20.27542252        0.34032520
       76.82478       20.24529143        0.39241878
       76.92448       20.01754016        0.31008482
       77.02417       19.79949929        0.31893632
       77.12386       19.82033213        0.33454178
       77.22356       19.91466058        0.35571630
       77.32325       19.75820548        0.43323827
       77.42294       20.15262320        0.35027491
       77.52264       19.87308706        0.34134034
       77.62233       19.54821277        0.33682956
       77.72202       19.42612306        0.33499115
       77.82172       20.29808521        0.40012344
       77.92141       19.79048749        0.30284847
       78.02110       19.55768614        0.32408717
       78.12080       19.79455285        0.34584768
       78.22049       19.57793516        0.36578607
       78.32018       19.73355662        0.42773100
       78.41988       19.83420228        0.33896079
       78.51957       19.85151793        0.34937701
       78.61926       19.87104202        0.34717106
       78.71896       19.62245617        0.34561019
       78.81865       20.22283375        0.39098513
       78.91835       19.75414059        0.29793441
       79.01804       19.26014278        0.32386827
       79.11773       19.93349618        0.34528866
       79.21743       19.84233413        0.36824560
       79.31712       20.85248729        0.42516317
       79.41681       21.45950928        0.34784233
       79.51651       22.14479046        0.35966976
       79.61620       22.39059288        0.36198658
       79.71589       23.87130260        0.38728425
       79.81559       25.08849750        0.41965101
       79.91528       27.06598280        0.37052604
       80.01497       30.72453684        0.41163007
       80.11467       32.51782993        0.44126350
       80.21436       33.32065465        0.47670417
       80.31405       33.91250596        0.57102526
       80.41375       35.43611325        0.44679181
       80.51344       35.96254919        0.44801419
       80.61313       36.05642027        0.46067476
       80.71283       36.48770966        0.48165958
       80.81252       35.89514846        0.53826809
       80.91221       34.44858080        0.39332408
       81.01191       31.73364124        0.40440381
       81.11160       29.57959677        0.42039734
       81.21129       26.72164184        0.43124862
       81.31099       26.52139562        0.47847644
       81.41068       23.82678412        0.35297503
       81.51037       22.49261246        0.35169792
       81.61007       21.20735642        0.36062502
       81.70976       21.45611445        0.37598402
       81.80945       21.39811177        0.39933549
       81.90915       20.79114402        0.29982134
       82.00884       20.28938320        0.31696021
       82.10853       19.98778154        0.35050172
       82.20823       19.58779788        0.38378971
       82.30792       19.18419597        0.39710314
       82.40761       19.70387990        0.32892988
       82.50731       19.97189206        0.33506006
       82.60700       19.70622644        0.35640851
       82.70669       20.62160626        0.39710170
       82.80639       19.53618479        0.36827343
       82.90608       19.62090139        0.29909573
       83.00577       20.05408713        0.31987334
       83.10547       19.44359936        0.36982324
       83.20516       20.30018257        0.42344947
       83.30485       20.14358515        0.40304363
       83.40455       21.38906199        0.34666947
       83.50424       21.54187062        0.33770863
       83.60394       20.85707017        0.36581814
       83.70363       21.53953076        0.41791417
       83.80332       20.93323163        0.36046894
       83.90302       22.14285995        0.30996491
       84.00271       23.48083665        0.33231475
       84.10240       24.48520565        0.41088706
       84.20210       24.39089321        0.49813385
       84.30179       24.82045085        0.40872503
       84.40148       24.04857739        0.35330570
       84.50118       24.82451135        0.35258269
       84.60087       25.38707785        0.40190089
       84.70056       24.36592159        0.51198596
       84.80026       24.37271824        0.35776217
       84.89995       24.13166562        0.32131989
       84.99964       23.90446880        0.33287432
       85.09934       22.22931175        0.37813550
       85.19903       21.98398959        0.64388862
       85.29872       21.92202006        0.33827961
       85.39842       20.37800895        0.33138333
       85.49811       19.97093618        0.31868740
       85.59780       19.81303091        0.35556634
       85.69750       18.53626091        0.61846319
       85.79719       19.92190261        0.30630087
       85.89688       19.42343588        0.29535483
       85.99658       19.22195957        0.30075975
       86.09627       19.05886165        0.34319430
       86.19596       19.83391237        0.67571344
       86.29566       19.57938960        0.31599289
       86.39535       18.79586295        0.31283108
       86.49504       19.00266396        0.30958723
       86.59474       20.02079889        0.34360251
       86.69443       19.58962676        0.71203531
       86.79412       20.19645794        0.30096025
       86.89382       20.08855412        0.29234754
       86.99351       20.17565247        0.30420325
       87.09320       20.60646121        0.34096015
       87.19290       20.03340834        0.79746986
       87.29259       21.93696840        0.33610240
       87.39228       22.35089372        0.34751670
       87.49198       22.83728664        0.34421100
       87.59167       22.43346909        0.34525212
       87.69136       22.20911626        1.02752305
       87.79106       22.99323721        0.32427126
       87.89075       23.00401442        0.32173722
       87.99044       22.84032977        0.33182463
       88.09014       22.80584197        0.35214543
       88.18983       21.64149327        1.82534324
       88.28953       22.36355562        0.35518604
       88.38922       22.37119897        0.35868081
       88.48891       22.36313639        0.34244990
       88.58861       20.96803415        0.31999329
       88.68830       22.85292162        2.61866564
       88.78799       20.73423936        0.30699560
       88.88769       19.47383662        0.28905177
       88.98738       20.25525525        0.30777153
       89.08707       19.67374037        0.31389160
       89.18677       17.09583399        2.38299487
       89.28646       19.98869880        0.32058344
       89.38615       19.10812740        0.31451107
       89.48585       19.64613873        0.31291181
       89.58554       18.85045747        0.29899207
       89.68523       22.79986706        2.65985778
       89.78493       19.20324173        0.29148703
       89.88462       19.27108902        0.28946579
       89.98431       19.59185232        0.30124637
       90.08401       19.74895801        0.31112645
       90.18370       15.62951212        2.28909591
       90.28339       19.47564312        0.31512414
       90.38309       19.70298494        0.32187867
       90.48278       19.59924011        0.31383336
       90.58247       20.25208693        0.31391996
       90.68217       19.73963967        2.44650476
       90.78186       20.18341846        0.30396968
       90.88155       21.03372220        0.30262454
       90.98125       20.07991263        0.30385244
       91.08094       20.64443526        0.31799003
       91.18063       24.83446081        2.78295631
       91.28033       21.14035511        0.33068912
       91.38002       20.77554991        0.33483676
       91.47971       21.80287350        0.33479740
       91.57941       22.82449427        0.33624530
       91.67910       25.62261815        2.70050243
       91.77879       24.88247971        0.33640374
       91.87849       26.48707908        0.34000803
       91.97818       30.04342813        0.37627844
       92.07787       33.19933084        0.41057259
       92.17757       40.82223705        3.46281745
       92.27726       38.67589075        0.45689639
       92.37695       45.21706194        0.51069774
       92.47665       55.13234911        0.54290431
       92.57634       72.46522082        0.60100104
       92.67603       83.26059021        4.21847141
       92.77573       95.61851111        0.66804501
       92.87542      125.91768026        0.75503260
       92.97512      152.47851899        0.86921900
       93.07481      173.51339735        1.06120819
       93.17450      176.73458836        2.02132479
       93.27420      195.54805046        1.05478561
       93.37389      212.85460978        1.07400616
       93.47358      226.86094978        1.11766330
       93.57328      245.34596786        1.34999032
       93.67297      249.29250045        1.83621613
       93.77266      263.57101592        1.17268116
       93.87236      271.83089805        1.13204058
       93.97205      277.19154572        1.20481299
       94.07174      273.00478109        1.56310523
       94.17144      269.07010398        1.77175523
       94.27113      254.38964061        1.27061639
       94.37082      238.11269424        1.18747268
       94.47052      225.26198770        1.10648761
       94.57021      216.76551174        1.42945081
       94.66990      212.27309026        1.42612861
       94.76960      206.40004597        1.08696998
       94.86929      202.61780938        0.98892533
       94.96898      190.53775065        0.97115005
       95.06868      173.24943305        1.05902398
       95.16837      167.63983957        1.42048098
       95.26806      159.72807836        1.06921952
       95.36776      146.92780543        0.92683380
       95.46745      136.01866170        0.85448966
       95.56714      124.95956179        0.93703932
       95.66684      121.83764199        1.04625644
       95.76653      115.54325513        0.84567642
       95.86622      103.00860706        0.67803907
       95.96592       86.03412605        0.63667043
       96.06561       71.94891349        0.74374391
       96.16530       64.51986138        0.74644534
       96.26500       55.68577642        0.62208957
       96.36469       47.83132845        0.51335297
       96.46438       42.68353466        0.47127866
       96.56408       39.47160388        0.56560331
       96.66377       37.72217988        0.53687527
       96.76346       35.44877266        0.46343802
       96.86316       33.87907715        0.39080196
       96.96285       32.66662508        0.39577372
       97.06254       31.91012864        0.52708062
       97.16224       31.67439986        0.50251219
       97.26193       31.34700206        0.46748345
       97.36162       32.12836865        0.44297525
       97.46132       33.12497005        0.41792402
       97.56101       32.31383719        0.52118689
       97.66071       31.41459328        0.45973774
       97.76040       29.92405326        0.40773476
       97.86009       28.91597248        0.36118072
       97.95979       28.23379329        0.36266367
       98.05948       28.10511529        0.50601912
       98.15917       28.25913084        0.45315253
       98.25887       28.98988518        0.44109319
       98.35856       28.09728764        0.40810798
       98.45825       28.12189917        0.37959766
       98.55795       27.64224828        0.49099033
       98.65764       26.92149059        0.41514571
       98.75733       26.21296291        0.38082995
       98.85703       24.51192643        0.34316175
       98.95672       24.50761422        0.34439795
       99.05641       23.96807521        0.47487461
       99.15611       23.70235404        0.40504842
       99.25580       23.74360591        0.39099369
       99.35549       23.35054008        0.36839592
       99.45519       22.48106973        0.33648739
       99.55488       22.87681696        0.45310915
       99.65457       23.58720725        0.37900025
       99.75427       22.66032555        0.34779643
       99.85396       23.27063499        0.33960487
       99.95365       22.76131140        0.32917163
      100.05335       22.23712183        0.46111214
      100.15304       21.91454745        0.38442202
      100.25273       21.81495211        0.37906618
      100.35243       21.77950322        0.37596039
      100.45212       21.94870747        0.34426323
      100.55181       21.41645295        0.44756464
      100.65151       21.80075870        0.36930539
      100.75120       21.95715648        0.34507351
      100.85089       21.23515654        0.32354700
      100.95059       20.57177961        0.30929676
      101.05028       20.27415112        0.43799462
      101.14997       20.10633718        0.35936884
      101.24967       19.92586077        0.35249890
      101.34936       19.27331827        0.34813258
      101.44905       20.34191253        0.33928655
      101.54875       19.77004707        0.42028016
      101.64844       19.71462298        0.34146023
      101.74813       19.84424805        0.32129198
      101.84783       19.75231325        0.31068453
      101.94752       19.30307891        0.32351582
      102.04722       18.42496406        0.37976026
      102.14691       19.48228313        0.35160303
      102.24660       19.21650361        0.34630570
      102.34630       20.42388107        0.35981076
      102.44599       19.13251202        0.35322191
      102.54568       19.22072261        0.37060384
      102.64538       19.76840898        0.33513762
      102.74507       18.85811497        0.31083433
      102.84476       18.30540624        0.29994903
      102.94446       18.22431326        0.33943125
      103.04415       18.88865587        0.36915800
      103.14384       19.17445279        0.34856454
      103.24354       18.54015526        0.33795722
      103.34323       19.50899100        0.34330590
      103.44292       19.04393201        0.36698300
      103.54262       19.66926644        0.36205507
      103.64231       19.10919365        0.32395478
      103.74200       18.89149190        0.30667692
      103.84170       19.13573523        0.30264202
      103.94139       18.30642965        0.35944831
      104.04108       18.73312808        0.35218600
      104.14078       19.15143012        0.34495332
      104.24047       18.56670213        0.33872488
      104.34016       18.69284981        0.34133806
      104.43986       18.52482699        0.38696339
      104.53955       18.13628053        0.34516892
      104.63924       18.80634926        0.32964560
      104.73894       18.07566542        0.31054840
      104.83863       19.28018915        0.31140489
      104.93832       19.31143022        0.37739583
      105.03802       19.56948769        0.35661000
      105.13771       19.84594432        0.34554232
      105.23740       18.91761432        0.33600543
      105.33710       19.66584859        0.34340031
      105.43679       19.18979138        0.39486590
      105.53648       19.78174494        0.36071893
      105.63618       19.68193693        0.33094712
      105.73587       19.99186479        0.31910040
      105.83556       19.61045305        0.30725919
      105.93526       19.94588864        0.39197977
      106.03495       19.81535136        0.35380387
      106.13464       20.16403084        0.34448683
      106.23434       20.09237139        0.34587767
      106.33403       19.72122655        0.34634464
      106.43372       20.11952442        0.41844418
      106.53342       20.00424278        0.36347907
      106.63311       20.15552124        0.33175208
      106.73281       19.84546691        0.31262222
      106.83250       19.84259012        0.30720478
      106.93219       20.01159270        0.39926051
      107.03189       19.51119577        0.34932027
      107.13158       19.32581899        0.33671153
      107.23127       19.02673737        0.34028604
      107.33097       19.13741263        0.34144105
      107.43066       19.22354907        0.41229431
      107.53035       18.81297023        0.35053203
      107.63005       18.72744526        0.31822694
      107.72974       19.32128762        0.30973059
      107.82943       18.81739764        0.30132470
      107.92913       18.54486515        0.39538546
      108.02882       18.54371885        0.34661207
      108.12851       19.23912065        0.33753346
      108.22821       19.03693056        0.33099494
      108.32790       20.28575980        0.33736979
      108.42759       19.59875531        0.42040804
      108.52729       20.18499253        0.36180582
      108.62698       19.29887718        0.31975609
      108.72667       20.19733527        0.31359714
      108.82637       20.97632055        0.32748335
      108.92606       20.12216439        0.40822632
      109.02575       20.44009279        0.35997394
      109.12545       22.26887396        0.36605285
      109.22514       22.53510521        0.36728882
      109.32483       22.46793920        0.39881255
      109.42453       22.85301063        0.42405097
      109.52422       23.38737701        0.38703090
      109.62391       23.48526388        0.36847141
      109.72361       23.87935297        0.35579889
      109.82330       25.02035885        0.34273865
      109.92299       24.95619807        0.44514862
      110.02269       24.61719076        0.38546981
      110.12238       25.13214722        0.38666481
      110.22207       25.77927602        0.38828970
      110.32177       26.39150935        0.40054731
      110.42146       25.08356512        0.47311829
      110.52115       24.93419167        0.40132628
      110.62085       26.81614610        0.39402990
      110.72054       25.79918217        0.36279762
      110.82023       26.44084969        0.37806783
      110.91993       25.68770766        0.43286796
      111.01962       24.83786430        0.39319796
      111.11931       24.99915725        0.39633195
      111.21901       25.30088315        0.39076865
      111.31870       23.92964632        0.41147355
      111.41840       25.10113930        0.43884618
      111.51809       24.05994159        0.39188485
      111.61778       23.31985891        0.36321067
      111.71748       23.31965129        0.33663950
      111.81717       22.20619002        0.35547609
      111.91686       22.65189726        0.37739746
      112.01656       22.00237533        0.36310810
      112.11625       22.54609729        0.36988729
      112.21594       22.41776504        0.36807177
      112.31564       22.80156725        0.41149107
      112.41533       21.64805834        0.39359355
      112.51502       22.34318835        0.36764512
      112.61472       22.19329406        0.34912306
      112.71441       21.69303529        0.32500661
      112.81410       21.60719422        0.36259073
      112.91380       21.66717040        0.36944413
      113.01349       20.48189042        0.35226335
      113.11318       21.25218806        0.35915097
      113.21288       20.75324372        0.35430096
      113.31257       20.44061718        0.38852847
      113.41226       20.25145595        0.36675126
      113.51196       20.31569522        0.34536927
      113.61165       19.85870415        0.32951383
      113.71134       19.74013027        0.31286938
      113.81104       19.03264868        0.35195762
      113.91073       19.91896684        0.35108782
      114.01042       19.26676192        0.34233364
      114.11012       19.16356840        0.34083906
      114.20981       18.41034639        0.33544546
      114.30950       19.47141298        0.39099179
      114.40920       19.40096870        0.36027472
      114.50889       19.17683159        0.33528065
      114.60858       19.74292958        0.32995505
      114.70828       18.88165770        0.31171648
      114.80797       18.17230606        0.34848789
      114.90766       18.70185959        0.33277724
      115.00736       18.86058713        0.33194508
      115.10705       18.09824188        0.32614737
      115.20674       18.64428372        0.33623871
      115.30644       19.11061374        0.38998504
      115.40613       18.68546017        0.34970239
      115.50582       18.41012513        0.32839469
      115.60552       19.29664888        0.32559040
      115.70521       19.44746732        0.31466083
      115.80490       18.48042957        0.35684104
      115.90460       18.61281756        0.32396089
      116.00429       19.16809526        0.33266503
      116.10399       18.25757413        0.32668796
      116.20368       18.65511463        0.33757850
      116.30337       18.64551722        0.40314582
      116.40307       18.74314968        0.35335706
      116.50276       18.20400224        0.32983781
      116.60245       19.17378635        0.32549379
      116.70215       18.91166684        0.31146235
      116.80184       18.45794867        0.36499270
      116.90153       19.11395025        0.33437529
      117.00123       18.93837828        0.32986928
      117.10092       19.79255589        0.34614529
      117.20061       19.54789582        0.34921699
      117.30031       18.85581907        0.41232629
      117.40000       19.49727933        0.35127423
      117.49969       19.74264333        0.33553782
      117.59939       19.87684282        0.32126774
      117.69908       20.61610026        0.31678448
      117.79877       20.55293622        0.38785722
      117.89847       20.90589786        0.33967761
      117.99816       22.63061517        0.35868890
      118.09785       22.84552620        0.36915074
      118.19755       24.06635765        0.39590406
      118.29724       24.64847233        0.43673684
      118.39693       26.19429164        0.41081387
      118.49663       27.04231948        0.39264812
      118.59632       29.04020817        0.39173834
      118.69601       32.27451247        0.43187126
      118.79571       34.83438105        0.48561804
      118.89540       38.35719477        0.47666627
      118.99509       42.24427616        0.50069178
      119.09479       48.39857971        0.54071110
      119.19448       54.04436668        0.62294074
      119.29417       60.45666645        0.68595356
      119.39387       67.54708579        0.66826021
      119.49356       76.33233570        0.66926344
      119.59325       88.95294080        0.70469395
      119.69295      100.13811588        0.79262819
      119.79264      111.49309623        0.84889770
      119.89233      123.49090129        0.86767269
      119.99203      136.53963063        0.89296960
      120.09172      148.29850749        0.95151460
      120.19141      157.63587848        1.10251995
      120.29111      167.51088288        1.12492697
      120.39080      174.92335502        1.09964583
      120.49049      186.08968957        1.06025469
      120.59019      195.23367083        1.05697225
      120.68988      206.21850086        1.17305406
      120.78958      212.80925686        1.16499966
      120.88927      219.56214768        1.16511400
      120.98896      229.85358557        1.18190246
      121.08866      233.14884230        1.19609952
      121.18835      239.72651081        1.39519204
      121.28804      243.15957117        1.37043400
      121.38774      248.83227601        1.31633194
      121.48743      252.44076079        1.25606974
      121.58712      253.81798650        1.20099967
      121.68682      251.13790582        1.31506631
      121.78651      250.36696243        1.25275663
      121.88620      246.30859368        1.22623553
      121.98590      237.93369378        1.21075463
      122.08559      228.93912441        1.20875463
      122.18528      224.46280729        1.39630885
      122.28498      214.88310049        1.28061686
      122.38467      206.59529535        1.19934000
      122.48436      195.81549098        1.10178125
      122.58406      183.89844327        1.00798634
      122.68375      170.92016051        1.09771319
      122.78344      162.31715652        1.00276337
      122.88314      151.39622499        0.95966366
      122.98283      141.01895158        0.94436219
      123.08252      134.18993186        0.91683325
      123.18222      126.09713326        1.03335394
      123.28191      116.74299961        0.89931765
      123.38160      109.19436745        0.83844683
      123.48130      102.39792833        0.78048619
      123.58099       93.49447495        0.69533538
      123.68068       85.70166255        0.75823504
      123.78038       81.03413504        0.66510693
      123.88007       72.25208149        0.61550964
      123.97976       66.27584593        0.59832686
      124.07946       60.01564480        0.56212251
      124.17915       54.97839009        0.60516933
      124.27884       51.88112204        0.52599195
      124.37854       47.30865560        0.47200408
      124.47823       44.11019796        0.44577121
      124.57792       41.34728864        0.45962427
