        5.04553       39.48689254        0.99335714
        5.14523       37.77824497        0.92933075
        5.24492       37.39450823        0.91178695
        5.34461       39.41609521        0.86215683
        5.44431       39.25012639        0.94097150
        5.54400       38.58203666        0.77749747
        5.64369       38.93242196        0.78493861
        5.74339       38.49105418        0.69946262
        5.84308       39.30644491        0.71552032
        5.94277       38.52056061        0.70638346
        6.04247       38.78830386        0.68761412
        6.14216       38.16848118        0.62783770
        6.24185       38.00340792        0.64556433
        6.34155       37.81093488        0.61433878
        6.44124       37.02886317        0.64080315
        6.54093       37.38720716        0.61057163
        6.64063       37.40833760        0.57889798
        6.74032       38.24804356        0.58547418
        6.84001       38.34878097        0.58292368
        6.93971       38.13996349        0.58634429
        7.03940       38.68889069        0.55019082
        7.13909       37.64359884        0.54017209
        7.23879       38.55780850        0.53906738
        7.33848       38.43239374        0.54647706
        7.43817       37.76811830        0.53022741
        7.53787       37.45753866        0.52117981
        7.63756       39.25374205        0.50902642
        7.73725       38.54550417        0.52436827
        7.83695       39.39144552        0.51291740
        7.93664       39.40170391        0.53515166
        8.03633       39.49426037        0.48241934
        8.13603       38.95334885        0.47345718
        8.23572       38.44714338        0.47956825
        8.33541       39.90098631        0.48384428
        8.43511       40.06000320        0.51297647
        8.53480       39.51827088        0.47203825
        8.63449       39.78622003        0.46928490
        8.73419       39.76139103        0.45802559
        8.83388       40.27268221        0.46361015
        8.93357       39.42939640        0.45762715
        9.03327       40.27130955        0.45050247
        9.13296       40.46644754        0.44927698
        9.23265       39.89998371        0.45159615
        9.33235       41.00481897        0.47136155
        9.43204       40.24783898        0.46510278
        9.53174       40.72987238        0.44965092
        9.63143       40.92993400        0.46588954
        9.73112       41.25766443        0.46784301
        9.83082       42.18586528        0.49370627
        9.93051       40.91973548        0.47887940
       10.03020       40.80584513        0.46224757
       10.12990       41.86109692        0.45709012
       10.22959       42.77934845        0.48092563
       10.32928       41.51131197        0.49342582
       10.42898       42.81333469        0.49478119
       10.52867       42.91436223        0.47912834
       10.62836       42.54693353        0.47692713
       10.72806       42.81898499        0.48442702
       10.82775       43.19474505        0.48538249
       10.92744       43.62285243        0.49507731
       11.02714       43.88286079        0.47432113
       11.12683       43.94298522        0.49061354
       11.22652       44.08977261        0.49720394
       11.32622       43.96424493        0.50958794
       11.42591       44.71942411        0.49600705
       11.52560       44.45718420        0.48895884
       11.62530       44.44772613        0.49325790
       11.72499       45.19798638        0.50647779
       11.82468       45.64707783        0.52279325
       11.92438       45.20762620        0.49430819
       12.02407       46.57680320        0.49625212
       12.12376       45.81979473        0.49508481
       12.22346       46.32452480        0.52827035
       12.32315       45.88182727        0.53081628
       12.42284       45.93682299        0.50641815
       12.52254       47.43285054        0.51067296
       12.62223       46.93961670        0.52203109
       12.72192       47.45768848        0.51001766
       12.82162       48.18426331        0.55524649
       12.92131       47.85868376        0.50798810
       13.02100       49.46004596        0.51052745
       13.12070       48.56575007        0.51413444
       13.22039       51.05611256        0.54286410
       13.32008       50.59940653        0.56093134
       13.41978       51.67453371        0.53899075
       13.51947       51.10330044        0.54588462
       13.61916       51.72721813        0.53032323
       13.71886       52.61663085        0.56099760
       13.81855       54.08907844        0.57755053
       13.91824       54.30533916        0.54466466
       14.01794       54.39024931        0.53322696
       14.11763       55.97257083        0.56039201
       14.21733       56.56332849        0.56619238
       14.31702       57.14136373        0.59776952
       14.41671       57.14397957        0.57978460
       14.51641       58.13440299        0.56880692
       14.61610       60.08273879        0.58134671
       14.71579       62.08093472        0.60197202
       14.81549       64.73536864        0.64512772
       14.91518       64.98194875        0.59100665
       15.01487       68.26204463        0.61712204
       15.11457       73.63755450        0.64933558
       15.21426       80.14370137        0.69886516
       15.31395       86.78956530        0.74738000
       15.41365       93.39600589        0.75121954
       15.51334      111.59046390        0.79935347
       15.61303      127.27840433        0.88184924
       15.71273      151.90238347        0.95111125
       15.81242      173.52737381        1.07059688
       15.91211      186.32360023        1.07285670
       16.01181      228.38825840        1.15108014
       16.11150      275.65568802        1.31454831
       16.21119      341.65152823        1.52444122
       16.31089      415.72130630        1.70722115
       16.41058      494.20755210        1.84896699
       16.51027      617.15021039        2.14826024
       16.60997      800.59187730        2.43282730
       16.70966      988.47728852        2.85154238
       16.80935     1103.82854943        3.10204182
       16.90905     1239.01708108        3.25006505
       17.00874     1076.96191258        2.83602286
       17.10843      850.77419606        2.58150523
       17.20813      659.27823767        2.21877242
       17.30782      504.56233665        1.90551596
       17.40751      349.64949054        1.54113591
       17.50721      265.67654823        1.28080142
       17.60690      196.98018485        1.12425204
       17.70659      153.85406534        0.98970597
       17.80629      118.75201112        0.87357893
       17.90598       95.75700714        0.73051308
       18.00567       82.07050870        0.68657751
       18.10537       73.48075477        0.63092082
       18.20506       68.62163440        0.66723352
       18.30475       65.26540460        0.62028726
       18.40445       64.07593108        0.59791014
       18.50414       60.06037139        0.59734652
       18.60384       58.13081103        0.57806358
       18.70353       57.71102684        0.60925510
       18.80322       54.92124276        0.55885046
       18.90292       53.55185028        0.54615729
       19.00261       53.71812305        0.53040358
       19.10230       51.86944627        0.55527579
       19.20200       50.99752875        0.56333276
       19.30169       49.63821833        0.53567873
       19.40138       50.23568886        0.53403217
       19.50108       49.53204664        0.54227903
       19.60077       47.68531525        0.52656632
       19.70046       48.71368111        0.55791188
       19.80016       48.01694777        0.52444324
       19.89985       47.51979407        0.50641804
       19.99954       47.46116600        0.51115042
       20.09924       47.30323929        0.51653644
       20.19893       45.85183731        0.54349728
       20.29862       45.81439294        0.51460613
       20.39832       46.03776962        0.53238373
       20.49801       45.00054511        0.51618944
       20.59770       44.50003675        0.52373649
       20.69740       43.05356925        0.53325952
       20.79709       43.26490340        0.50908216
       20.89678       42.70164105        0.49293199
       20.99648       41.93310786        0.49639919
       21.09617       42.12405677        0.51947769
       21.19586       41.72785604        0.51674476
       21.29556       40.93711103        0.50006237
       21.39525       41.04385562        0.50148193
       21.49494       41.70155136        0.49671913
       21.59464       40.96286660        0.50291546
       21.69433       41.21385206        0.52527931
       21.79402       40.17912207        0.47337738
       21.89372       39.91793870        0.46222953
       21.99341       39.49731632        0.47923386
       22.09310       39.78124102        0.48303469
       22.19280       39.39885001        0.50974704
       22.29249       39.71659114        0.47762311
       22.39218       39.94337401        0.48952180
       22.49188       39.31882123        0.48620000
       22.59157       37.91107568        0.48345746
       22.69126       39.51906730        0.51889328
       22.79096       38.06954465        0.46000019
       22.89065       39.55428191        0.45829674
       22.99034       38.99186333        0.46749869
       23.09004       38.95784378        0.48804918
       23.18973       38.43627010        0.48386728
       23.28943       38.08613402        0.47455738
       23.38912       38.57498253        0.48245181
       23.48881       37.84342026        0.48019188
       23.58851       37.76190427        0.48576469
       23.68820       38.02823501        0.51337935
       23.78789       37.97536120        0.45677519
       23.88759       37.61081732        0.46102736
       23.98728       37.54906714        0.47007918
       24.08697       37.79311835        0.46244795
       24.18667       36.42699433        0.48675865
       24.28636       35.84196786        0.45796323
       24.38605       36.89045813        0.47481691
       24.48575       36.04049499        0.46852169
       24.58544       36.54848462        0.48621166
       24.68513       36.79827798        0.48801318
       24.78483       36.72441793        0.44928796
       24.88452       37.16644101        0.45094491
       24.98421       36.09374392        0.45954226
       25.08391       35.17889965        0.46302280
       25.18360       36.22165568        0.48008912
       25.28329       36.41253293        0.46401609
       25.38299       36.59264258        0.46377054
       25.48268       37.17087592        0.47025414
       25.58237       36.51318723        0.48485881
       25.68207       35.61524416        0.46912990
       25.78176       35.91593186        0.44285771
       25.88145       36.74268535        0.45993992
       25.98115       36.63751821        0.46420108
       26.08084       36.00859010        0.47150957
       26.18053       36.45253735        0.48745097
       26.28023       36.13981042        0.45928728
       26.37992       36.19445172        0.45994492
       26.47961       35.59374352        0.47103654
       26.57931       34.99920045        0.48736734
       26.67900       35.82135788        0.46148562
       26.77869       35.61203331        0.45685172
       26.87839       35.61856564        0.45196743
       26.97808       35.95712513        0.45124055
       27.07777       36.08116973        0.48700538
       27.17747       36.27631444        0.46621240
       27.27716       35.91493098        0.45213277
       27.37685       36.03746592        0.47062310
       27.47655       35.01885767        0.45660175
       27.57624       36.28187894        0.48569247
       27.67593       36.22777282        0.47529301
       27.77563       36.07018611        0.45402929
       27.87532       36.57864115        0.44965886
       27.97502       36.51459816        0.45827741
       28.07471       37.02786358        0.48913390
       28.17440       36.37363517        0.46364790
       28.27410       36.83004046        0.46561279
       28.37379       35.93084740        0.47085019
       28.47348       36.22111189        0.46970133
       28.57318       36.55169399        0.51117798
       28.67287       36.62502201        0.45622212
       28.77256       36.72333461        0.44844585
       28.87226       36.85479800        0.46030520
       28.97195       36.85817931        0.46206925
       29.07164       36.08488077        0.49758147
       29.17134       36.42556007        0.45545953
       29.27103       37.69058617        0.47090424
       29.37072       37.42362754        0.48852898
       29.47042       36.44558071        0.47506199
       29.57011       36.74781590        0.50485622
       29.66980       37.95483593        0.46797487
       29.76950       37.77071213        0.46656313
       29.86919       37.59840573        0.45616657
       29.96888       37.55243113        0.47672290
       30.06858       38.90009492        0.50112430
       30.16827       38.92339934        0.47422213
       30.26796       38.91010500        0.47466693
       30.36766       38.85689840        0.48401143
       30.46735       39.71071436        0.49359975
       30.56704       41.03519883        0.52809489
       30.66674       40.24707080        0.48814647
       30.76643       41.16262146        0.48208382
       30.86612       41.75991579        0.49565607
       30.96582       44.12516068        0.51345273
       31.06551       46.41084615        0.55249838
       31.16520       47.11194188        0.52342125
       31.26490       49.98078621        0.53514231
       31.36459       57.31786812        0.58208443
       31.46428       69.94214893        0.67188620
       31.56398       89.47904413        0.77173600
       31.66367      104.60753269        0.78236886
       31.76336      145.34192474        0.93030619
       31.86306      216.57336616        1.14008866
       31.96275      310.56259909        1.42029575
       32.06244      380.51094535        1.64802871
       32.16214      442.83917301        1.68911410
       32.26183      429.42005350        1.70011075
       32.36152      360.28024134        1.59399461
       32.46122      277.08221269        1.39635196
       32.56091      208.07920236        1.21735345
       32.66061      140.90938669        0.94070575
       32.76030      105.80275874        0.79254132
       32.85999       94.16899909        0.75755763
       32.95969      104.36600286        0.80726864
       33.05938      135.42838982        0.94161108
       33.15907      186.65693851        1.05311790
       33.25877      286.48110917        1.36962550
       33.35846      447.83217332        1.77307671
       33.45815      653.18059227        2.30716648
       33.55785      833.02160592        2.69017023
       33.65754     1055.96317945        2.92532410
       33.75723     1166.87687975        3.12872458
       33.85693     1079.86388479        2.98171832
       33.95662      922.82214633        2.76744308
       34.05631      759.75469083        2.42745352
       34.15601      590.89488034        2.04054341
       34.25570      458.33519653        1.75829437
       34.35539      335.01717434        1.50655302
       34.45509      241.51695055        1.32854181
       34.55478      166.99692937        1.02594933
       34.65447      106.63205310        0.77924754
       34.75417       76.62038778        0.66782448
       34.85386       62.48279368        0.59420982
       34.95355       56.12651220        0.58066366
       35.05325       52.45508245        0.58010093
       35.15294       48.73565669        0.52721074
       35.25263       47.99792953        0.53229104
       35.35233       46.79880853        0.54070176
       35.45202       44.85545098        0.55270667
       35.55171       43.87288787        0.53277582
       35.65141       42.61948607        0.50694662
       35.75110       41.45189395        0.49546663
       35.85079       40.11148941        0.48502419
       35.95049       39.52186306        0.49348999
       36.05018       38.49852337        0.47905433
       36.14987       38.27053703        0.45898379
       36.24957       37.88338312        0.47668310
       36.34926       36.38741989        0.47607454
       36.44895       35.66605163        0.47980258
       36.54865       36.35499900        0.46589104
       36.64834       35.31046721        0.44922281
       36.74803       34.58338003        0.45074664
       36.84773       34.60593880        0.44831561
       36.94742       35.07321710        0.48890812
       37.04711       34.25781279        0.42539448
       37.14681       33.55268726        0.43021671
       37.24650       33.14328043        0.43839782
       37.34620       33.42892332        0.45197047
       37.44589       32.18884639        0.47440160
       37.54558       32.99979428        0.43803217
       37.64528       32.37548441        0.43416756
       37.74497       32.72007038        0.42927190
       37.84466       32.87101419        0.45565918
       37.94436       32.68011716        0.46339560
       38.04405       32.62595116        0.41880104
       38.14374       32.03263640        0.41852023
       38.24344       32.07517826        0.42522210
       38.34313       32.45917015        0.44639301
       38.44282       32.48037275        0.48320319
       38.54252       32.93572467        0.43607703
       38.64221       36.06558410        0.45621486
       38.74190       36.60891222        0.46422417
       38.84160       40.96821201        0.49281117
       38.94129       44.81181734        0.54126284
       39.04098       53.73995051        0.53364641
       39.14068       61.87290330        0.59567729
       39.24037       65.18592262        0.61153561
       39.34006       64.33753921        0.63057738
       39.43976       60.36081505        0.66479421
       39.53945       53.92799476        0.56199597
       39.63914       44.76805166        0.50933739
       39.73884       38.16716835        0.47148163
       39.83853       34.26642279        0.44314403
       39.93822       33.62682806        0.46514855
       40.03792       31.09577326        0.40803870
       40.13761       32.33874787        0.41743839
       40.23730       31.55688875        0.42742535
       40.33700       33.08015482        0.45112421
       40.43669       32.78069237        0.46944067
       40.53638       33.33554085        0.44001879
       40.63608       33.31199131        0.44801765
       40.73577       33.75678000        0.44856337
       40.83546       33.61389609        0.45158769
       40.93516       33.69378785        0.46087311
       41.03485       34.66545136        0.44102612
       41.13454       32.52647872        0.42770116
       41.23424       32.75167219        0.43949238
       41.33393       32.73972427        0.45915064
       41.43362       31.94439814        0.46800012
       41.53332       31.63391190        0.43492191
       41.63301       32.40903251        0.44870638
       41.73270       32.17546359        0.43723694
       41.83240       33.39550646        0.45906954
       41.93209       33.53011581        0.45699519
       42.03179       34.00261553        0.42004062
       42.13148       35.28397119        0.44970602
       42.23117       38.17468286        0.46825347
       42.33087       43.04343765        0.53253297
       42.43056       53.34953908        0.58210443
       42.53025       66.72556164        0.63166088
       42.62995       89.51370108        0.73971207
       42.72964      131.08764516        0.90711986
       42.82933      173.01515981        1.06889720
       42.92903      210.51280697        1.14519313
       43.02872      234.57440234        1.15108822
       43.12841      220.43558551        1.13402463
       43.22811      184.40953095        1.08159655
       43.32780      141.93704869        0.99022556
       43.42749      105.67776439        0.83171259
       43.52719       71.92158923        0.65646068
       43.62688       51.88709642        0.55342236
       43.72657       40.46831387        0.49945384
       43.82627       36.51841775        0.49602080
       43.92596       34.93068906        0.43845557
       44.02565       32.45651904        0.41923094
       44.12535       31.91972420        0.43062276
       44.22504       31.45461079        0.44506079
       44.32473       30.74417499        0.46416845
       44.42443       31.31655782        0.44995029
       44.52412       30.35973359        0.42997959
       44.62381       30.01267836        0.43407834
       44.72351       29.56007274        0.41658427
       44.82320       29.22835014        0.46335208
       44.92289       29.53644117        0.38764509
       45.02259       29.32230646        0.38949072
       45.12228       29.10397619        0.40162767
       45.22197       29.33076099        0.41311307
       45.32167       28.74083675        0.45255828
       45.42136       28.85613734        0.41322820
       45.52105       28.70629632        0.40833187
       45.62075       28.87083776        0.41461451
       45.72044       27.94844779        0.40660500
       45.82013       27.85279470        0.44321822
       45.91983       27.81925474        0.37784351
       46.01952       27.42994390        0.38498593
       46.11921       28.24551523        0.39147013
       46.21891       27.98416045        0.40921804
       46.31860       27.02105437        0.43450491
       46.41830       27.28542522        0.40330522
       46.51799       27.63937409        0.40662705
       46.61768       26.92589007        0.39922202
       46.71738       27.47168786        0.41440586
       46.81707       27.26580810        0.42855671
       46.91676       28.02964073        0.38029759
       47.01646       27.38688449        0.38588513
       47.11615       27.95032451        0.39792401
       47.21584       27.94531409        0.41006797
       47.31554       27.58345817        0.44244231
       47.41523       27.80480035        0.41622521
       47.51492       27.79579059        0.41795821
       47.61462       27.06888248        0.41059744
       47.71431       27.61389508        0.41962635
       47.81400       27.16604788        0.42769906
       47.91370       27.76000059        0.37994338
       48.01339       27.42917594        0.37677040
       48.11308       26.65606622        0.38389591
       48.21278       26.61495817        0.39916946
       48.31247       26.39545523        0.40997432
       48.41216       25.84380610        0.37946588
       48.51186       26.70076301        0.39897192
       48.61155       26.17384058        0.39303972
       48.71124       26.59086509        0.40423791
       48.81094       26.67169319        0.40239910
       48.91063       26.29361195        0.35696569
       49.01032       26.21663150        0.36712741
       49.11002       26.34929800        0.38199043
       49.20971       26.72901308        0.40522396
       49.30940       26.60021603        0.41759476
       49.40910       26.83835752        0.39918180
       49.50879       25.91287366        0.39977260
       49.60848       26.69034997        0.40978309
       49.70818       26.67960444        0.42562255
       49.80787       26.24498962        0.40947773
       49.90756       27.09048534        0.37737199
       50.00726       26.46294046        0.38154160
       50.10695       26.45807107        0.39083126
       50.20664       27.33872603        0.41652709
       50.30634       27.19909855        0.43495158
       50.40603       27.73152711        0.41169369
       50.50572       27.37560707        0.40915852
       50.60542       28.59048026        0.41868967
       50.70511       28.25486324        0.42752907
       50.80480       28.55518483        0.42161024
       50.90450       28.45245338        0.38138444
       51.00419       29.53464118        0.39381652
       51.10389       29.46107135        0.40646046
       51.20358       31.63812158        0.44898633
       51.30327       34.97527781        0.46954218
       51.40297       39.09803146        0.47557302
       51.50266       48.99795449        0.53673045
       51.60235       63.70155095        0.62565121
       51.70205       81.15774851        0.75419900
       51.80174       99.85867847        0.77448485
       51.90143      120.98929611        0.80070486
       52.00113      136.48766805        0.85561028
       52.10082      139.99333641        0.89681736
       52.20051      133.13604915        0.95898036
       52.30021      121.06031394        0.87614241
       52.39990      102.71502797        0.78834165
       52.49959       81.69954534        0.71333550
       52.59929       66.50287185        0.65352711
       52.69898       54.32310421        0.64704888
       52.79867       43.61825910        0.48850956
       52.89837       35.79794846        0.42568863
       52.99806       31.80955283        0.40714632
       53.09775       30.09774536        0.40740949
       53.19745       28.60666535        0.45407275
       53.29714       27.49446573        0.39323826
       53.39683       28.33284998        0.41585322
       53.49653       27.47405541        0.41289839
       53.59622       28.06820895        0.41743249
       53.69591       27.13911412        0.45113346
       53.79561       27.56539599        0.38036027
       53.89530       26.89791197        0.37051033
       53.99499       26.85161824        0.37662484
       54.09469       26.88201294        0.39527261
       54.19438       26.16947674        0.42483065
       54.29407       26.65074359        0.39609936
       54.39377       25.80777778        0.39280505
       54.49346       26.86677502        0.40167556
       54.59315       26.19317829        0.40278245
       54.69285       26.91815829        0.43521655
       54.79254       25.82596303        0.36499975
       54.89223       26.13501765        0.36388824
       54.99193       26.63406246        0.37881445
       55.09162       26.11815091        0.39186093
       55.19131       26.05415292        0.42162407
       55.29101       26.30457598        0.39431099
       55.39070       25.27989805        0.39827061
       55.49039       26.20135356        0.40296154
       55.59009       26.08402096        0.41442549
       55.68978       26.54012323        0.42809447
       55.78948       26.91238004        0.37614449
       55.88917       28.12646112        0.38544037
       55.98886       30.53386065        0.40571829
       56.08856       33.19435512        0.43762233
       56.18825       35.10036794        0.48655115
       56.28794       37.43706268        0.45903934
       56.38764       40.25207146        0.49165648
       56.48733       43.09031672        0.51507404
       56.58702       44.70106897        0.53930774
       56.68672       45.19817402        0.56003384
       56.78641       44.55222425        0.48017344
       56.88610       44.07784842        0.48243314
       56.98580       42.55106470        0.47419540
       57.08549       42.39299204        0.50228995
       57.18518       40.49532486        0.50849401
       57.28488       38.92855130        0.46319561
       57.38457       35.10619258        0.46546530
       57.48426       31.73454256        0.45167257
       57.58396       29.63466707        0.44859615
       57.68365       29.24580268        0.45152906
       57.78334       27.61165214        0.38364088
       57.88304       26.65902615        0.38128308
       57.98273       26.22479772        0.38366848
       58.08242       25.51855234        0.40755195
       58.18212       25.64463059        0.41676417
       58.28181       26.23009463        0.39549875
       58.38150       26.63312637        0.41990125
       58.48120       26.93976623        0.43290160
       58.58089       29.28530226        0.45763610
       58.68058       30.26612803        0.45527964
       58.78028       34.61806425        0.42509918
       58.87997       40.97962191        0.45442830
       58.97966       51.87971381        0.53002374
       59.07936       62.07376385        0.61900848
       59.17905       72.07528749        0.67804567
       59.27874       81.58060825        0.68814294
       59.37844       86.46560619        0.73310147
       59.47813       86.05695159        0.76171439
       59.57782       80.22829575        0.76675169
       59.67752       72.97842318        0.67916149
       59.77721       61.09871572        0.56921426
       59.87690       46.95118684        0.49339705
       59.97660       38.09257096        0.46520116
       60.07629       32.78566812        0.46787862
       60.17598       29.07683161        0.42214666
       60.27568       28.13501398        0.40305229
       60.37537       25.77156732        0.39245255
       60.47507       25.72052436        0.40744960
       60.57476       24.56285000        0.43694949
       60.67445       24.85160064        0.37611790
       60.77415       24.20204814        0.35238017
       60.87384       24.60534013        0.35071141
       60.97353       24.87824011        0.37251620
       61.07323       25.33384452        0.42376966
       61.17292       24.51731907        0.36025769
       61.27261       24.11872279        0.36912725
       61.37231       24.42669447        0.38428841
       61.47200       24.29275946        0.39878227
       61.57169       23.30721596        0.44404905
       61.67139       23.33858121        0.36290507
       61.77108       23.58603097        0.35749521
       61.87077       23.92596520        0.35752550
       61.97047       23.86370032        0.37007968
       62.07016       23.33355211        0.41423467
       62.16985       23.87140070        0.36704812
       62.26955       23.09617320        0.37468398
       62.36924       23.20700268        0.38819066
       62.46893       23.65745616        0.40694575
       62.56863       23.74590914        0.45866135
       62.66832       23.77583752        0.37260267
       62.76801       24.12734563        0.36572899
       62.86771       23.97928771        0.35603750
       62.96740       23.98725994        0.36579152
       63.06709       24.00761068        0.40775477
       63.16679       23.64012646        0.35690855
       63.26648       23.91670305        0.37085457
       63.36617       23.97146736        0.38741389
       63.46587       24.39362038        0.40470146
       63.56556       23.63008078        0.42424987
       63.66525       23.29496076        0.35625318
       63.76495       23.77230474        0.34939381
       63.86464       23.46397732        0.34495425
       63.96433       24.18194812        0.36611399
       64.06403       23.99993031        0.38930740
       64.16372       23.60038217        0.35884409
       64.26341       24.41057577        0.38277608
       64.36311       24.02755271        0.38752482
       64.46280       24.34628998        0.41188506
       64.56249       24.31005222        0.41791493
       64.66219       24.15775776        0.36393088
       64.76188       24.99102460        0.36470992
       64.86157       24.37923428        0.35827847
       64.96127       25.17905297        0.38316326
       65.06096       25.97746673        0.42270990
       65.16066       26.11141634        0.38440027
       65.26035       25.64743788        0.38865808
       65.36004       26.35283231        0.40999031
       65.45974       27.51933738        0.43242202
       65.55943       28.44595402        0.45937498
       65.65912       27.86708473        0.39364464
       65.75882       29.66645364        0.40251029
       65.85851       32.23159580        0.42015637
       65.95820       35.25981310        0.46323883
       66.05790       37.98507672        0.49736228
       66.15759       41.17437997        0.49217252
       66.25728       45.56249665        0.53324385
       66.35698       49.35440647        0.57679076
       66.45667       56.41336526        0.65492059
       66.55636       62.91272093        0.68941032
       66.65606       74.79761887        0.66932355
       66.75575       97.60066098        0.75553270
       66.85544      136.58613421        0.89389209
       66.95514      189.77317674        1.10641298
       67.05483      255.69122186        1.30738183
       67.15452      340.58216273        1.45617381
       67.25422      438.35165859        1.75918284
       67.35391      524.21807275        2.04189901
       67.45360      591.31501745        2.32467917
       67.55330      641.95204327        2.35853722
       67.65299      696.05921102        2.23704254
       67.75268      714.91627673        2.24603649
       67.85238      698.29300751        2.23564540
       67.95207      648.52765195        2.28117521
       68.05176      584.77917143        2.02639374
       68.15146      491.58300519        1.80368378
       68.25115      406.92329274        1.71606531
       68.35084      344.40203719        1.63917704
       68.45054      301.32018478        1.68379517
       68.55023      254.48343373        1.32139261
       68.64992      197.27046406        1.06751532
       68.74962      141.70008665        0.90267154
       68.84931      100.04328544        0.76228977
       68.94900       77.89416058        0.75685429
       69.04870       56.76889149        0.54104758
       69.14839       44.88898201        0.49763952
       69.24808       38.78026242        0.49817264
       69.34778       34.82495195        0.48631989
       69.44747       32.13100905        0.53934525
       69.54716       29.32426161        0.40131330
       69.64686       29.28417966        0.39467572
       69.74655       27.27367045        0.38271285
       69.84625       26.14366442        0.38342696
       69.94594       26.26071702        0.43374104
       70.04563       26.12522285        0.35905439
       70.14533       26.43353425        0.37696088
       70.24502       27.05811626        0.40736299
       70.34471       27.09255657        0.43085943
       70.44441       27.25690135        0.50759069
       70.54410       27.93875427        0.40185545
       70.64379       28.90762916        0.40627722
       70.74349       29.88993241        0.41929709
       70.84318       30.86263553        0.44627449
       70.94287       32.22131734        0.50350831
       71.04257       30.69104623        0.40545752
       71.14226       30.27756345        0.41713863
       71.24195       30.07051184        0.43655984
       71.34165       28.99696751        0.45246311
       71.44134       27.52580014        0.49056472
       71.54103       26.39195016        0.39080477
       71.64073       25.62184816        0.37768281
       71.74042       25.60505636        0.37346743
       71.84011       24.98449707        0.38252678
       71.93981       25.78582195        0.42272919
       72.03950       24.63872223        0.34833915
       72.13919       24.62613787        0.36284307
       72.23889       24.18002382        0.37358865
       72.33858       23.60089749        0.41121604
       72.43827       23.30300297        0.44914589
       72.53797       23.90283345        0.37060431
       72.63766       23.83263156        0.36313782
       72.73735       23.96686440        0.35507554
       72.83705       23.81245666        0.37279124
       72.93674       24.70531788        0.40298458
       73.03643       25.17694703        0.35175048
       73.13613       27.53092341        0.38642765
       73.23582       28.53316168        0.41481889
       73.33551       29.77946195        0.46965296
       73.43521       30.74665619        0.51837362
       73.53490       31.44216031        0.42267988
       73.63459       32.37735708        0.42190764
       73.73429       34.72743166        0.43378080
       73.83398       35.32043653        0.46318333
       73.93367       35.20374873        0.48606791
       74.03337       35.51845363        0.43017109
       74.13306       35.88455256        0.45548327
       74.23276       35.80883119        0.47571189
       74.33245       36.08683254        0.52493037
       74.43214       35.37525545        0.53678702
       74.53184       35.42121718        0.45590504
       74.63153       33.52899990        0.43995810
       74.73122       31.31286413        0.42182288
       74.83092       28.46139062        0.42490330
       74.93061       27.18049012        0.42033722
       75.03030       25.06270018        0.36384576
       75.13000       23.41428891        0.36357581
       75.22969       22.18707840        0.36875249
       75.32938       22.11896919        0.40331908
       75.42908       21.94824399        0.40686490
       75.52877       21.35328802        0.34801047
       75.62846       20.90901256        0.34203221
       75.72816       21.29389645        0.34535512
       75.82785       20.98443803        0.37139409
       75.92754       21.16793830        0.35272519
       76.02724       20.56794305        0.32432622
       76.12693       20.86690201        0.33983197
       76.22662       20.70442142        0.35715346
       76.32632       20.31724700        0.39946124
       76.42601       20.18886518        0.37262675
       76.52570       19.76142011        0.33898683
       76.62540       20.51532187        0.34509609
       76.72509       21.07073388        0.34680958
       76.82478       21.12102598        0.40067737
       76.92448       20.77192144        0.31575613
       77.02417       20.25226370        0.32242157
       77.12386       20.46186931        0.33977813
       77.22356       19.98804982        0.35618686
       77.32325       20.15522908        0.43737323
       77.42294       19.86244236        0.34753725
       77.52264       20.62931220        0.34764485
       77.62233       20.68104164        0.34635074
       77.72202       20.16538366        0.34117750
       77.82172       19.89004926        0.39583601
       77.92141       20.44393884        0.30768646
       78.02110       19.44607459        0.32298124
       78.12080       19.81953910        0.34588336
       78.22049       20.48848662        0.37406870
       78.32018       20.99872863        0.44111317
       78.41988       20.18724692        0.34180770
       78.51957       19.95693101        0.35012463
       78.61926       19.98467394        0.34798523
       78.71896       20.21342414        0.35063315
       78.81865       19.90626130        0.38768004
       78.91835       20.01070158        0.29971953
       79.01804       20.52226838        0.33422313
       79.11773       20.68940781        0.35164387
       79.21743       20.43835779        0.37358364
       79.31712       20.94046987        0.42584027
       79.41681       21.24363699        0.34588822
       79.51651       22.58980026        0.36310667
       79.61620       23.05880005        0.36720496
       79.71589       23.84439455        0.38685786
       79.81559       25.22058915        0.42054245
       79.91528       27.19955278        0.37125243
       80.01497       30.30075422        0.40852797
       80.11467       31.39083401        0.43321635
       80.21436       32.97199720        0.47391742
       80.31405       34.04728178        0.57187215
       80.41375       34.92731217        0.44329019
       80.51344       34.42904072        0.43798408
       80.61313       34.31931111        0.44903794
       80.71283       34.28652017        0.46644096
       80.81252       33.44635138        0.51903943
       80.91221       32.83115319        0.38364480
       81.01191       30.46602389        0.39592809
       81.11160       28.33933236        0.41116296
       81.21129       25.36880852        0.41984668
       81.31099       24.44244870        0.45889387
       81.41068       22.73479246        0.34452833
       81.51037       21.31004618        0.34205952
       81.61007       21.18063544        0.36020383
       81.70976       21.24465015        0.37391066
       81.80945       20.77424683        0.39320943
       81.90915       20.97465706        0.30099301
       82.00884       20.47312869        0.31823507
       82.10853       20.46462668        0.35450505
       82.20823       20.36240105        0.39116065
       82.30792       19.74081116        0.40265583
       82.40761       19.30699562        0.32539935
       82.50731       20.18270928        0.33665949
       82.60700       20.60303879        0.36430357
       82.70669       20.53153174        0.39601489
       82.80639       20.16111418        0.37396769
       82.90608       20.39948844        0.30486031
       83.00577       20.24482748        0.32123278
       83.10547       20.34549871        0.37817424
       83.20516       21.11861162        0.43174623
       83.30485       20.62390069        0.40764496
       83.40455       21.22183260        0.34511549
       83.50424       20.76298972        0.33131583
       83.60394       21.98600298        0.37547816
       83.70363       22.55817522        0.42754691
       83.80332       22.11790535        0.37042460
       83.90302       23.41505773        0.31866146
       84.00271       23.26833385        0.33061671
       84.10240       24.18690763        0.40813353
       84.20210       23.46657964        0.48824841
       84.30179       24.38339752        0.40485757
       84.40148       24.59552670        0.35715231
       84.50118       24.51602456        0.35017591
       84.60087       24.89112505        0.39770244
       84.70056       24.90231615        0.51737448
       84.80026       24.62421341        0.35943125
       84.89995       24.35904459        0.32267406
       84.99964       23.13208426        0.32722451
       85.09934       22.25552979        0.37815918
       85.19903       21.56139835        0.63727329
       85.29872       21.54168363        0.33512669
       85.39842       20.58222104        0.33287670
       85.49811       20.70987795        0.32440783
       85.59780       20.69534225        0.36327174
       85.69750       18.99737221        0.62583615
       85.79719       20.12240827        0.30768755
       85.89688       19.65522858        0.29696828
       85.99658       20.22294723        0.30839274
       86.09627       19.72391700        0.34899415
       86.19596       19.31353086        0.66636116
       86.29566       19.60637825        0.31604394
       86.39535       19.31565845        0.31699328
       86.49504       19.53838394        0.31378931
       86.59474       19.90078855        0.34237991
       86.69443       20.33121497        0.72511554
       86.79412       20.22657449        0.30102607
       86.89382       20.07554881        0.29209641
       86.99351       21.20370493        0.31175939
       87.09320       21.30192880        0.34653275
       87.19290       22.26112524        0.84059114
       87.29259       21.68598849        0.33397852
       87.39228       21.60490235        0.34143208
       87.49198       23.13193664        0.34626178
       87.59167       23.04364154        0.34977507
       87.69136       22.67563994        1.03780939
       87.79106       22.90950007        0.32350230
       87.89075       22.42189445        0.31743206
       87.99044       22.70592235        0.33066138
       88.09014       22.55740412        0.35001729
       88.18983       24.53980697        1.94389493
       88.28953       22.44205026        0.35562542
       88.38922       22.11362941        0.35640072
       88.48891       20.77854208        0.32980763
       88.58861       20.80351035        0.31855455
       88.68830       19.65925845        2.42586487
       88.78799       20.68817971        0.30648813
       88.88769       19.65867025        0.29027697
       88.98738       19.94438907        0.30521778
       89.08707       20.37572582        0.31932007
       89.18677       21.10702183        2.64868694
       89.28646       19.87655422        0.31950496
       89.38615       19.35045254        0.31634673
       89.48585       19.97087262        0.31534100
       89.58554       19.62868973        0.30498945
       89.68523       20.89050680        2.54366128
       89.78493       19.66580278        0.29484861
       89.88462       19.61290640        0.29188731
       89.98431       19.98369816        0.30410726
       90.08401       20.30540309        0.31534841
       90.18370       20.27894775        2.60862862
       90.28339       19.58531302        0.31584915
       90.38309       19.37917432        0.31903068
       90.48278       20.00030550        0.31688627
       90.58247       20.19807856        0.31333051
       90.68217       20.21448652        2.47468696
       90.78186       20.71959613        0.30785181
       90.88155       20.97804941        0.30205928
       90.98125       20.86384365        0.30961360
       91.08094       21.31338078        0.32297480
       91.18063       26.65401111        2.88268469
       91.28033       21.21064604        0.33106702
       91.38002       21.16184500        0.33778315
       91.47971       22.30234568        0.33846626
       91.57941       22.93151459        0.33686103
       91.67910       18.68430622        2.30144055
       91.77879       24.40551772        0.33295311
       91.87849       26.60538446        0.34059404
       91.97818       28.54178171        0.36644303
       92.07787       31.82643169        0.40166401
       92.17757       31.45163132        3.03188851
       92.27726       35.39256177        0.43653864
       92.37695       42.71111803        0.49582111
       92.47665       50.79218460        0.52034920
       92.57634       63.66204439        0.56198797
       92.67603       80.56412764        4.14512905
       92.77573       87.19601400        0.63650726
       92.87542      116.27628342        0.72375593
       92.97512      143.99997315        0.84283768
       93.07481      166.13610691        1.03635346
       93.17450      175.15289087        2.01061978
       93.27420      190.74691938        1.04024970
       93.37389      210.81020992        1.06788014
       93.47358      227.68342883        1.11931931
       93.57328      246.89501238        1.35399416
       93.67297      249.32130996        1.83544121
       93.77266      270.75106678        1.18961652
       93.87236      277.68793802        1.14490767
       93.97205      287.99789784        1.23002547
       94.07174      291.92139401        1.62143610
       94.17144      292.21099056        1.85368226
       94.27113      280.45754311        1.34019409
       94.37082      265.17006363        1.25909713
       94.47052      247.58720281        1.16451014
       94.57021      235.27310224        1.49389274
       94.66990      231.01173528        1.49248297
       94.76960      219.62724612        1.12362422
       94.86929      208.15549934        1.00294775
       94.96898      191.29873325        0.97275098
       95.06868      174.51461659        1.06262075
       95.16837      165.46340716        1.40990778
       95.26806      156.69293757        1.05783418
       95.36776      143.38883745        0.91448679
       95.46745      130.91714835        0.83701939
       95.56714      116.90785054        0.90439855
       95.66684      110.10060879        0.99169523
       95.76653      103.46277224        0.79785878
       95.86622       86.29185028        0.61813288
       95.96592       68.78498186        0.56695003
       96.06561       56.03611252        0.65384554
       96.16530       51.99612392        0.66799114
       96.26500       45.90035265        0.56333679
       96.36469       41.16093109        0.47529538
       96.46438       38.17794012        0.44505307
       96.56408       37.62369630        0.55169789
       96.66377       35.17549673        0.51788307
       96.76346       33.79972794        0.45213310
       96.86316       32.66437036        0.38343028
       96.96285       32.72411287        0.39591675
       97.06254       32.43850981        0.53120428
       97.16224       31.92469689        0.50425307
       97.26193       32.63482083        0.47686669
       97.36162       32.44505880        0.44494703
       97.46132       33.15490702        0.41789399
       97.56101       32.33960044        0.52112116
       97.66071       31.36151846        0.45910054
       97.76040       31.34483358        0.41720625
       97.86009       29.84798991        0.36683306
       97.95979       29.64252166        0.37151480
       98.05948       29.15174801        0.51519580
       98.15917       28.79483293        0.45723664
       98.25887       29.36810882        0.44376127
       98.35856       28.04333052        0.40749483
       98.45825       27.87456397        0.37770423
       98.55795       27.20154907        0.48675657
       98.65764       26.66887896        0.41295182
       98.75733       25.37270528        0.37441062
       98.85703       23.80844056        0.33797125
       98.95672       23.98420470        0.34048144
       99.05641       23.81067767        0.47304527
       99.15611       22.96763805        0.39844696
       99.25580       22.98201826        0.38440513
       99.35549       22.89714903        0.36457269
       99.45519       22.90836371        0.33952021
       99.55488       22.52657441        0.44935456
       99.65457       23.25138854        0.37606563
       99.75427       22.52150140        0.34653472
       99.85396       23.12355067        0.33833926
       99.95365       22.89804000        0.32999275
      100.05335       23.04927368        0.46928826
      100.15304       22.12262100        0.38605421
      100.25273       21.83606986        0.37904945
      100.35243       21.78923430        0.37584498
      100.45212       21.51729475        0.34065043
      100.55181       22.14170870        0.45490769
      100.65151       21.10859343        0.36314856
      100.75120       22.07882451        0.34585302
      100.85089       21.36114150        0.32434128
      100.95059       20.68042295        0.30995442
      101.05028       20.36264259        0.43872392
      101.14997       21.14052443        0.36837995
      101.24967       20.63118003        0.35854612
      101.34936       19.51945368        0.35018015
      101.44905       19.90230325        0.33539024
      101.54875       19.44483231        0.41655816
      101.64844       20.05953138        0.34427598
      101.74813       20.19225259        0.32394829
      101.84783       19.86765857        0.31143199
      101.94752       19.84057592        0.32785180
      102.04722       19.47218357        0.39028224
      102.14691       20.02431990        0.35631182
      102.24660       19.41076782        0.34788066
      102.34630       19.38030889        0.35023338
      102.44599       19.18547238        0.35352595
      102.54568       20.27924523        0.38055489
      102.64538       18.75519889        0.32619181
      102.74507       19.51226754        0.31605501
      102.84476       18.99459881        0.30542530
      102.94446       19.19655824        0.34825411
      103.04415       19.06526685        0.37069610
      103.14384       20.11949005        0.35693248
      103.24354       19.03491482        0.34229040
      103.34323       19.00183568        0.33859715
      103.44292       19.07330224        0.36707245
      103.54262       19.45801004        0.35989747
      103.64231       19.57361434        0.32772545
      103.74200       19.65233664        0.31267552
      103.84170       18.77551009        0.29959718
      103.94139       19.65907948        0.37240004
      104.04108       18.86364819        0.35323222
      104.14078       19.31891898        0.34628615
      104.24047       18.72524770        0.33999820
      104.34016       19.52601514        0.34873800
      104.43986       19.72841309        0.39922581
      104.53955       18.68723652        0.35022689
      104.63924       19.34802221        0.33421957
      104.73894       19.15523703        0.31959072
      104.83863       19.67233654        0.31441447
      104.93832       19.23064545        0.37639848
      105.03802       19.51234458        0.35589491
      105.13771       19.56849311        0.34291540
      105.23740       19.22830511        0.33859522
      105.33710       19.48299648        0.34160473
      105.43679       19.10660683        0.39379220
      105.53648       20.16571036        0.36403862
      105.63618       19.73685933        0.33123587
      105.73587       20.30364824        0.32142906
      105.83556       19.93570302        0.30965312
      105.93526       19.53726705        0.38770347
      106.03495       19.67347316        0.35233653
      106.13464       19.75229369        0.34074011
      106.23434       19.50593453        0.34056868
      106.33403       19.74543556        0.34637431
      106.43372       19.80214115        0.41488146
      106.53342       20.24660075        0.36549833
      106.63311       20.41682590        0.33373634
      106.73281       20.11770871        0.31460975
      106.83250       20.08548982        0.30893067
      106.93219       19.74017798        0.39630958
      107.03189       20.33405270        0.35648267
      107.13158       19.39195026        0.33711216
      107.23127       19.60007446        0.34523302
      107.33097       19.83132139        0.34744223
      107.43066       19.66903464        0.41686149
      107.53035       18.91293029        0.35128221
      107.63005       19.08541510        0.32110721
      107.72974       20.02137155        0.31517098
      107.82943       19.32636780        0.30524293
      107.92913       18.71756800        0.39702513
      108.02882       18.51799160        0.34618502
      108.12851       18.75471216        0.33304518
      108.22821       19.03099880        0.33076659
      108.32790       19.45832577        0.33018355
      108.42759       17.92150142        0.40165892
      108.52729       19.42457517        0.35467889
      108.62698       20.08208765        0.32606047
      108.72667       19.94765027        0.31147018
      108.82637       20.33542185        0.32222604
      108.92606       20.44791358        0.41132666
      109.02575       21.48299822        0.36892838
      109.12545       21.58008273        0.36010274
      109.22514       22.25742325        0.36480313
      109.32483       21.73349167        0.39197012
      109.42453       23.45505182        0.42942665
      109.52422       23.25957958        0.38575622
      109.62391       24.35599429        0.37510969
      109.72361       24.06542229        0.35700657
      109.82330       24.51008338        0.33900861
      109.92299       25.43055650        0.44916570
      110.02269       25.47004172        0.39195270
      110.12238       25.40374397        0.38856426
      110.22207       25.18083014        0.38350366
      110.32177       25.63793246        0.39451449
      110.42146       25.78641502        0.47951754
      110.52115       26.20209816        0.41129551
      110.62085       26.60768354        0.39226954
      110.72054       26.06813743        0.36451082
      110.82023       25.98482364        0.37455802
      110.91993       26.50980926        0.43958312
      111.01962       26.31597592        0.40464039
      111.11931       26.03499814        0.40433354
      111.21901       25.54800361        0.39248428
      111.31870       25.80534035        0.42723869
      111.41840       25.11787253        0.43876065
      111.51809       24.32305746        0.39383431
      111.61778       24.34926505        0.37102440
      111.71748       23.80915148        0.34000876
      111.81717       22.58281201        0.35831580
      111.91686       21.86828092        0.37055314
      112.01656       21.94694123        0.36245311
      112.11625       21.78231821        0.36331564
      112.21594       22.42520530        0.36793753
      112.31564       21.89821915        0.40296555
      112.41533       23.34846828        0.40868947
      112.51502       21.74720259        0.36246971
      112.61472       21.49874276        0.34338305
      112.71441       21.80493846        0.32567810
      112.81410       21.48183630        0.36133529
      112.91380       21.47744496        0.36761245
      113.01349       21.10786854        0.35746302
      113.11318       21.70446312        0.36279412
      113.21288       20.43442173        0.35135790
      113.31257       19.96931908        0.38378019
      113.41226       20.30446043        0.36703944
      113.51196       20.02704545        0.34270326
      113.61165       19.04367685        0.32245330
      113.71134       19.12942919        0.30778764
      113.81104       19.26346636        0.35391406
      113.91073       19.14171114        0.34392953
      114.01042       19.47449595        0.34400603
      114.11012       19.70601704        0.34548505
      114.20981       19.32719366        0.34358053
      114.30950       19.30493758        0.38909554
      114.40920       19.33244212        0.35944102
      114.50889       18.84127692        0.33213353
      114.60858       19.77071094        0.33001316
      114.70828       18.87255615        0.31147466
      114.80797       19.68770323        0.36265088
      114.90766       19.00538468        0.33530968
      115.00736       18.93600527        0.33243617
      115.10705       19.07511923        0.33472493
      115.20674       18.77245337        0.33722184
      115.30644       18.77105983        0.38627103
      115.40613       18.54907971        0.34822804
      115.50582       18.79320374        0.33164392
      115.60552       18.62802764        0.31968392
      115.70521       19.38523557        0.31398542
      115.80490       18.83827708        0.36011474
      115.90460       19.20972526        0.32898096
      116.00429       19.85193824        0.33841598
      116.10399       18.85427564        0.33184871
      116.20368       18.70872484        0.33788689
      116.30337       19.94454300        0.41684592
      116.40307       19.14703179        0.35698423
      116.50276       18.84045845        0.33542082
      116.60245       19.60579534        0.32899511
      116.70215       19.07548201        0.31265261
      116.80184       19.51162390        0.37515008
      116.90153       18.77026117        0.33115463
      117.00123       19.85712600        0.33766193
      117.10092       19.09237649        0.33973581
      117.20061       19.94612130        0.35259808
      117.30031       19.42916282        0.41837610
      117.40000       20.04337572        0.35601127
      117.49969       20.22758169        0.33948782
      117.59939       20.44599007        0.32570068
      117.69908       20.72945473        0.31749267
      117.79877       21.05746010        0.39242187
      117.89847       21.68761255        0.34584323
      117.99816       21.82303235        0.35198292
      118.09785       22.91857307        0.36954945
      118.19755       23.90008957        0.39431037
      118.29724       24.41796235        0.43443751
      118.39693       25.68823650        0.40656637
      118.49663       28.12074079        0.40027970
      118.59632       28.45093271        0.38748928
      118.69601       30.88942843        0.42215487
      118.79571       33.56591053        0.47631416
      118.89540       37.17282468        0.46888412
      118.99509       40.88697909        0.49218174
      119.09479       47.71414719        0.53651442
      119.19448       51.63785882        0.60828649
      119.29417       57.98283155        0.67107327
      119.39387       65.78981037        0.65892432
      119.49356       75.02316682        0.66297375
      119.59325       87.38016796        0.69784785
      119.69295       98.50782776        0.78548092
      119.79264      110.91680835        0.84616692
      119.89233      122.25062526        0.86264581
      119.99203      135.58500386        0.88921870
      120.09172      148.62156329        0.95213134
      120.19141      158.57396832        1.10544758
      120.29111      168.15552756        1.12666992
      120.39080      176.22782636        1.10347414
      120.49049      186.49952560        1.06097989
      120.59019      198.04358329        1.06461556
      120.68988      209.24302774        1.18174603
      120.78958      215.26799692        1.17169973
      120.88927      224.26101881        1.17802149
      120.98896      230.72579570        1.18376535
      121.08866      237.28998092        1.20705997
      121.18835      245.28166602        1.41210146
      121.28804      247.77422555        1.38394340
      121.38774      250.41223265        1.32026766
      121.48743      256.42040634        1.26629291
      121.58712      257.48815036        1.20992414
      121.68682      259.06715659        1.33706713
      121.78651      255.33195684        1.26571973
      121.88620      250.69538468        1.23755843
      121.98590      243.15829598        1.22462294
      122.08559      233.25930415        1.22053852
      122.18528      232.53379882        1.42273697
      122.28498      220.96852755        1.29953613
      122.38467      210.37284856        1.21055849
      122.48436      199.48705675        1.11231913
      122.58406      185.35018440        1.01174531
      122.68375      173.46013192        1.10584716
      122.78344      161.05142005        0.99809067
      122.88314      149.74708504        0.95362397
      122.98283      138.89605911        0.93634966
      123.08252      130.99453350        0.90480389
      123.18222      122.86813341        1.01884701
      123.28191      111.56288199        0.87775834
      123.38160      106.54568411        0.82734074
      123.48130       97.59183137        0.76080476
      123.58099       87.49596406        0.67147942
      123.68068       81.40560758        0.73794614
      123.78038       75.53199740        0.64106369
      123.88007       66.72207344        0.59049673
      123.97976       60.66237117        0.57145785
      124.07946       56.04782661        0.54248747
      124.17915       49.70388385        0.57446976
      124.27884       47.57674496        0.50297988
      124.37854       44.29339149        0.45618448
      124.47823       40.23346333        0.42515981
      124.57792       36.37520204        0.43042445
