        5.04553       34.52072190        0.92880485
        5.14523       33.58290132        0.87636460
        5.24492       35.63965448        0.89075081
        5.34461       35.08593694        0.81354186
        5.44431       36.46229705        0.90736736
        5.54400       34.49534724        0.73531412
        5.64369       34.18984766        0.73562192
        5.74339       34.76773555        0.66495515
        5.84308       34.91690920        0.67447591
        5.94277       34.52725130        0.66891359
        6.04247       33.99147162        0.64372519
        6.14216       34.36589493        0.59589683
        6.24185       34.25550669        0.61307099
        6.34155       34.20558607        0.58449142
        6.44124       34.45766252        0.61847565
        6.54093       34.26773437        0.58478035
        6.64063       34.94977780        0.55985503
        6.74032       34.77416121        0.55843662
        6.84001       35.29297283        0.55944933
        6.93971       35.44426469        0.56552172
        7.03940       34.69672562        0.52114592
        7.13909       35.70551172        0.52642609
        7.23879       33.89926343        0.50549379
        7.33848       34.38085686        0.51697677
        7.43817       34.77007053        0.50896550
        7.53787       35.01150693        0.50415033
        7.63756       35.25696664        0.48252155
        7.73725       33.68595146        0.49021808
        7.83695       34.65130468        0.48109693
        7.93664       35.12479242        0.50535322
        8.03633       34.57862972        0.45141069
        8.13603       35.17636021        0.45003715
        8.23572       35.36718058        0.46014754
        8.33541       35.38846354        0.45571342
        8.43511       34.81940165        0.47822586
        8.53480       36.10850288        0.45136843
        8.63449       36.22332467        0.44791806
        8.73419       35.34258665        0.43188078
        8.83388       35.50910997        0.43535317
        8.93357       35.78092020        0.43606761
        9.03327       35.78395840        0.42471046
        9.13296       35.54767825        0.42109703
        9.23265       35.87712724        0.42831643
        9.33235       35.93150863        0.44123526
        9.43204       35.94064272        0.43957860
        9.53174       35.36051057        0.41893523
        9.63143       36.15025004        0.43786554
        9.73112       36.30685311        0.43888338
        9.83082       36.41323570        0.45861319
        9.93051       36.69803082        0.45358106
       10.03020       36.82501792        0.43921866
       10.12990       36.68756141        0.42790027
       10.22959       36.54839846        0.44441100
       10.32928       36.30695253        0.46144221
       10.42898       37.00905727        0.45994566
       10.52867       37.20873931        0.44607810
       10.62836       37.38464363        0.44704594
       10.72806       36.78982359        0.44893379
       10.82775       37.97299225        0.45508053
       10.92744       37.74041257        0.46040607
       11.02714       38.49268907        0.44420242
       11.12683       38.19580802        0.45733740
       11.22652       38.11800221        0.46221525
       11.32622       38.74340052        0.47835519
       11.42591       38.40303097        0.45952015
       11.52560       38.20038911        0.45312990
       11.62530       38.06020773        0.45631042
       11.72499       38.90303768        0.46976068
       11.82468       39.66171613        0.48721608
       11.92438       40.27509541        0.46657225
       12.02407       39.64973435        0.45768215
       12.12376       39.73307944        0.46092713
       12.22346       40.43114041        0.49343456
       12.32315       39.90136821        0.49491500
       12.42284       39.95523916        0.47220262
       12.52254       40.14183869        0.46956419
       12.62223       41.02828782        0.48796368
       12.72192       39.73795547        0.46643224
       12.82162       40.43015631        0.50831945
       12.92131       42.50485916        0.47869911
       13.02100       40.50923400        0.46164741
       13.12070       42.84453860        0.48283195
       13.22039       42.81740195        0.49680306
       13.32008       43.13075492        0.51761596
       13.41978       43.88380105        0.49641281
       13.51947       43.61190142        0.50402723
       13.61916       44.06036781        0.48917505
       13.71886       44.87897866        0.51781395
       13.81855       44.89657077        0.52572905
       13.91824       46.01962424        0.50105157
       14.01794       45.83918870        0.48915760
       14.11763       46.26697578        0.50899505
       14.21733       47.80849318        0.52012719
       14.31702       49.63335705        0.55682593
       14.41671       49.26404298        0.53800553
       14.51641       50.16741865        0.52807013
       14.61610       51.19829289        0.53621294
       14.71579       53.24990877        0.55707152
       14.81549       53.58260513        0.58617935
       14.91518       55.62800928        0.54632367
       15.01487       60.77486970        0.58199671
       15.11457       65.45007273        0.61177092
       15.21426       72.14452943        0.66266251
       15.31395       79.51697387        0.71504892
       15.41365       86.42969226        0.72237107
       15.51334      104.06388225        0.77153012
       15.61303      120.42920124        0.85747562
       15.71273      146.87054987        0.93522473
       15.81242      170.66588856        1.06219231
       15.91211      182.32390557        1.06149576
       16.01181      228.43927739        1.15235094
       16.11150      280.20900523        1.32779566
       16.21119      350.43197583        1.54789139
       16.31089      430.78291971        1.74421965
       16.41058      506.77818790        1.87815993
       16.51027      635.86012080        2.18934674
       16.60997      835.72119960        2.50152349
       16.70966     1047.54103809        2.96371610
       16.80935     1189.47947994        3.26239200
       16.90905     1381.16462588        3.50148527
       17.00874     1245.28036120        3.12623396
       17.10843      999.07444032        2.86410959
       17.20813      780.16506571        2.46395421
       17.30782      598.30019929        2.11083137
       17.40751      412.62851544        1.69530349
       17.50721      305.54031557        1.38536320
       17.60690      220.84859232        1.19720705
       17.70659      167.67495468        1.03711696
       17.80629      126.21869261        0.90291917
       17.90598       95.72790099        0.73115432
       18.00567       79.76099826        0.67722953
       18.10537       68.47158374        0.60903868
       18.20506       64.00174092        0.64443647
       18.30475       59.52073489        0.59227094
       18.40445       58.02762213        0.56887020
       18.50414       55.44223091        0.57397087
       18.60384       53.30908102        0.55359443
       18.70353       51.81770402        0.57720497
       18.80322       50.58023139        0.53638711
       18.90292       50.23372918        0.52915620
       19.00261       49.35661332        0.50848642
       19.10230       47.70242618        0.53260053
       19.20200       45.91932198        0.53454409
       19.30169       45.43084749        0.51256217
       19.40138       45.24046273        0.50678958
       19.50108       44.27292938        0.51265788
       19.60077       44.06777955        0.50634913
       19.70046       42.95813196        0.52383718
       19.80016       42.00359033        0.49040437
       19.89985       43.16915247        0.48274797
       19.99954       42.09090779        0.48132933
       20.09924       42.29845308        0.48844967
       20.19893       41.10153785        0.51460424
       20.29862       40.67801519        0.48489074
       20.39832       40.47342705        0.49911833
       20.49801       40.07137327        0.48710917
       20.59770       39.71755777        0.49481893
       20.69740       38.95071296        0.50731340
       20.79709       38.64332499        0.48116538
       20.89678       37.84556582        0.46407469
       20.99648       37.26757929        0.46800582
       21.09617       37.51649727        0.49028812
       21.19586       36.34987782        0.48226129
       21.29556       37.08649385        0.47608142
       21.39525       36.49729556        0.47293949
       21.49494       35.98304235        0.46133925
       21.59464       35.93974184        0.47107241
       21.69433       34.59180313        0.48107098
       21.79402       35.37865251        0.44422061
       21.89372       35.26621314        0.43449768
       21.99341       35.91998905        0.45715626
       22.09310       34.69048295        0.45106436
       22.19280       33.93669563        0.47305087
       22.29249       34.58947227        0.44572004
       22.39218       34.64604746        0.45588128
       22.49188       35.07537262        0.45929075
       22.59157       33.70379749        0.45592125
       22.69126       34.99244420        0.48832362
       22.79096       33.95986892        0.43454656
       22.89065       34.20571638        0.42615728
       22.99034       33.52015512        0.43341672
       23.09004       33.63874269        0.45348116
       23.18973       33.38094807        0.45092300
       23.28943       34.44968448        0.45146640
       23.38912       33.97718733        0.45282892
       23.48881       34.02598294        0.45544497
       23.58851       34.52448896        0.46465087
       23.68820       34.35876539        0.48812223
       23.78789       33.31948250        0.42789256
       23.88759       33.86146156        0.43756277
       23.98728       33.73168084        0.44565768
       24.08697       33.20669414        0.43352061
       24.18667       32.87797745        0.46258356
       24.28636       32.56193398        0.43666676
       24.38605       32.99769109        0.44917441
       24.48575       33.12444215        0.44936820
       24.58544       32.96388842        0.46189394
       24.68513       32.51689053        0.45881831
       24.78483       32.81477391        0.42480006
       24.88452       32.28630125        0.42031089
       24.98421       32.14303777        0.43376225
       25.08391       32.46844236        0.44504572
       25.18360       32.51051052        0.45495704
       25.28329       32.61521875        0.43926905
       25.38299       32.87005659        0.43966936
       25.48268       32.31513320        0.43848015
       25.58237       32.13829712        0.45494795
       25.68207       32.37390004        0.44744182
       25.78176       32.50653488        0.42145815
       25.88145       31.55119002        0.42619511
       25.98115       32.48025237        0.43715218
       26.08084       32.29031406        0.44662571
       26.18053       32.46840617        0.46014347
       26.28023       32.05892608        0.43266605
       26.37992       32.10143845        0.43324426
       26.47961       31.45430097        0.44288328
       26.57931       31.83123151        0.46496983
       26.67900       32.09426787        0.43693841
       26.77869       31.88767922        0.43242214
       26.87839       31.69954626        0.42647854
       26.97808       32.46073007        0.42887948
       27.07777       32.33648704        0.46116632
       27.17747       32.06921044        0.43842129
       27.27716       31.39748059        0.42278801
       27.37685       31.81794142        0.44228916
       27.47655       32.58825557        0.44071261
       27.57624       32.26053439        0.45808342
       27.67593       31.95919451        0.44648632
       27.77563       31.58253757        0.42489608
       27.87532       31.71857395        0.41873719
       27.97502       31.98422541        0.42895201
       28.07471       32.95116046        0.46151519
       28.17440       32.30467949        0.43703438
       28.27410       31.52109353        0.43072352
       28.37379       32.64452181        0.44896651
       28.47348       32.93367726        0.44804399
       28.57318       33.06815003        0.48636797
       28.67287       32.43035478        0.42937785
       28.77256       33.35849511        0.42755766
       28.87226       32.67191249        0.43347456
       28.97195       32.16965639        0.43171230
       29.07164       32.46788564        0.47212608
       29.17134       32.27750313        0.42882226
       29.27103       32.34750148        0.43622198
       29.37072       33.43540886        0.46186603
       29.47042       33.26886105        0.45406351
       29.57011       33.83319793        0.48463777
       29.66980       33.88223332        0.44224460
       29.76950       33.44057569        0.43906987
       29.86919       33.71629959        0.43207956
       29.96888       33.80369090        0.45242470
       30.06858       34.64066738        0.47297006
       30.16827       34.43195627        0.44607348
       30.26796       35.09087058        0.45088478
       30.36766       35.46432361        0.46255909
       30.46735       36.03627778        0.47034335
       30.56704       36.57796404        0.49864983
       30.66674       37.39450577        0.47074542
       30.76643       37.92936797        0.46293830
       30.86612       37.98268481        0.47283313
       30.96582       40.07140197        0.48939962
       31.06551       42.09587771        0.52626701
       31.16520       44.45791442        0.50871803
       31.26490       47.65703858        0.52285090
       31.36459       56.20180265        0.57686162
       31.46428       70.79585547        0.67680217
       31.56398       94.19315969        0.79339693
       31.66367      115.56916101        0.82503584
       31.76336      161.65119613        0.98533536
       31.86306      248.69498791        1.23059503
       31.96275      352.70113930        1.52704892
       32.06244      426.28309093        1.76060993
       32.16214      499.20337063        1.81313850
       32.26183      474.69521795        1.80371168
       32.36152      385.20081695        1.65735159
       32.46122      290.77855581        1.43557555
       32.56091      213.05363962        1.23424408
       32.66061      141.32909337        0.94314376
       32.76030      105.00757183        0.79024320
       32.85999       91.84182401        0.74855503
       32.95969      103.62010757        0.80508592
       33.05938      135.41936596        0.94253771
       33.15907      189.04715466        1.06140033
       33.25877      289.25670561        1.37829542
       33.35846      451.00387950        1.78196896
       33.45815      652.28772623        2.30718646
       33.55785      830.17391530        2.68649340
       33.65754     1048.16574737        2.91331083
       33.75723     1137.04187878        3.07749104
       33.85693     1027.43176373        2.88813871
       33.95662      867.91629194        2.66319203
       34.05631      709.92688625        2.32942541
       34.15601      564.93570537        1.98805402
       34.25570      465.31438772        1.77544179
       34.35539      363.67169985        1.57955027
       34.45509      274.17016004        1.42584069
       34.55478      200.15022057        1.13173737
       34.65447      124.39458696        0.84557926
       34.75417       85.16954648        0.70608043
       34.85386       65.13061416        0.60764210
       34.95355       54.79028832        0.57415366
       35.05325       49.69406030        0.56489603
       35.15294       47.03919738        0.51831611
       35.25263       44.45259435        0.51241493
       35.35233       43.00466123        0.51845469
       35.45202       41.97612357        0.53491480
       35.55171       41.36095219        0.51757308
       35.65141       39.01329309        0.48517061
       35.75110       38.13654153        0.47541142
       35.85079       37.28298365        0.46782749
       35.95049       36.06059690        0.47154115
       36.05018       36.25193922        0.46513948
       36.14987       35.68261635        0.44342177
       36.24957       35.57994054        0.46222953
       36.34926       33.48354700        0.45688812
       36.44895       34.57241027        0.47278180
       36.54865       33.35953122        0.44647657
       36.64834       33.05604630        0.43490059
       36.74803       32.34186287        0.43615116
       36.84773       31.64190487        0.42887357
       36.94742       31.56506264        0.46396181
       37.04711       31.35962532        0.40718613
       37.14681       30.91819621        0.41319064
       37.24650       30.98165420        0.42411748
       37.34620       30.29646402        0.43044622
       37.44589       29.78256828        0.45657842
       37.54558       30.98691037        0.42473341
       37.64528       29.79273103        0.41670530
       37.74497       29.93152088        0.41076690
       37.84466       29.84005226        0.43432696
       37.94436       30.01918272        0.44435182
       38.04405       29.94229825        0.40140620
       38.14374       29.38436766        0.40104854
       38.24344       30.64467030        0.41594820
       38.34313       29.80651971        0.42797907
       38.44282       30.73092679        0.47033605
       38.54252       31.69221082        0.42810805
       38.64221       32.54724484        0.43352938
       38.74190       34.53077238        0.45113651
       38.84160       37.33337449        0.47057969
       38.94129       42.38438032        0.52668688
       39.04098       49.91188580        0.51441804
       39.14068       58.82468756        0.58105902
       39.24037       61.65644091        0.59493545
       39.34006       61.37581116        0.61615798
       39.43976       59.05931731        0.65810042
       39.53945       51.48648093        0.54942463
       39.63914       42.66137281        0.49751460
       39.73884       36.29824646        0.46009986
       39.83853       33.13770470        0.43614368
       39.93822       30.77158570        0.44516720
       40.03792       29.86727304        0.40021894
       40.13761       29.39676162        0.39817333
       40.23730       30.49454607        0.42052192
       40.33700       30.54668588        0.43373404
       40.43669       30.32363674        0.45175028
       40.53638       30.29685780        0.41966132
       40.63608       31.32383168        0.43472178
       40.73577       31.08037478        0.43062806
       40.83546       31.37136971        0.43652101
       40.93516       30.82836612        0.44104232
       41.03485       31.02926074        0.41737778
       41.13454       30.67710229        0.41564354
       41.23424       30.59771587        0.42505300
       41.33393       30.43978645        0.44298504
       41.43362       30.31918817        0.45626800
       41.53332       29.27534389        0.41863076
       41.63301       30.24803015        0.43375163
       41.73270       31.16629095        0.43069135
       41.83240       30.50524185        0.43895298
       41.93209       30.58938790        0.43668790
       42.03179       32.36512737        0.41009551
       42.13148       32.92101558        0.43463140
       42.23117       35.80883777        0.45376642
       42.33087       40.39336947        0.51613765
       42.43056       50.43879413        0.56625325
       42.53025       64.80721138        0.62291830
       42.62995       91.10384641        0.74727342
       42.72964      130.09554310        0.90442140
       42.82933      180.25141786        1.09369133
       42.92903      222.95307467        1.18259069
       43.02872      258.01812984        1.21392364
       43.12841      249.62708268        1.21484873
       43.22811      210.09600475        1.16150083
       43.32780      164.91009462        1.07338694
       43.42749      122.12145562        0.89801527
       43.52719       82.50829966        0.70539969
       43.62688       55.79209370        0.57494505
       43.72657       42.01253491        0.50959897
       43.82627       36.53338749        0.49665083
       43.92596       33.12650304        0.42727317
       44.02565       31.59229529        0.41397618
       44.12535       29.79454443        0.41629625
       44.22504       29.84325685        0.43382467
       44.32473       29.30679071        0.45353245
       44.42443       29.56383259        0.43748069
       44.52412       27.98692960        0.41306711
       44.62381       28.72657707        0.42501252
       44.72351       27.25690389        0.40025705
       44.82320       28.12187679        0.45487470
       44.92289       27.67683482        0.37549556
       45.02259       27.62298638        0.37830277
       45.12228       27.48577738        0.39058460
       45.22197       26.55483840        0.39326587
       45.32167       26.56701784        0.43537031
       45.42136       26.87017454        0.39901200
       45.52105       26.64544653        0.39364903
       45.62075       26.06711633        0.39415401
       45.72044       26.58552327        0.39687501
       45.82013       25.49521659        0.42428566
       45.91983       25.78396577        0.36399006
       46.01952       25.77743536        0.37347623
       46.11921       25.85309477        0.37473364
       46.21891       25.64661934        0.39197765
       46.31860       25.87732059        0.42555997
       46.41830       25.36251967        0.38909041
       46.51799       25.33837225        0.38955837
       46.61768       25.28347741        0.38713244
       46.71738       25.50771806        0.39957753
       46.81707       25.71102711        0.41646504
       46.91676       26.33783057        0.36890269
       47.01646       25.90780618        0.37560271
       47.11615       25.91873978        0.38343294
       47.21584       26.19842814        0.39732046
       47.31554       25.85678930        0.42867036
       47.41523       25.67670238        0.40022574
       47.51492       25.77841046        0.40276202
       47.61462       25.31443907        0.39734395
       47.71431       25.36568270        0.40241863
       47.81400       25.17250363        0.41197194
       47.91370       25.65510982        0.36548128
       48.01339       25.34189785        0.36237704
       48.11308       25.19316714        0.37349526
       48.21278       24.74786772        0.38517170
       48.31247       24.88406950        0.39836081
       48.41216       24.31275132        0.36832708
       48.51186       24.36299800        0.38132352
       48.61155       24.95336058        0.38407663
       48.71124       25.24472725        0.39418052
       48.81094       24.96042771        0.38954992
       48.91063       24.40995942        0.34417115
       49.01032       24.02480898        0.35165723
       49.11002       25.32613213        0.37481863
       49.20971       23.85279215        0.38297588
       49.30940       24.69974011        0.40266757
       49.40910       24.87945271        0.38458803
       49.50879       25.12830515        0.39402850
       49.60848       25.23890586        0.39878744
       49.70818       25.12944346        0.41337727
       49.80787       25.34398231        0.40273980
       49.90756       24.73473410        0.36079535
       50.00726       25.48839946        0.37477219
       50.10695       25.22654089        0.38193427
       50.20664       25.91139075        0.40581764
       50.30634       25.52728570        0.42167217
       50.40603       25.37671013        0.39404973
       50.50572       26.22316055        0.40078269
       50.60542       25.78607822        0.39781282
       50.70511       25.89871104        0.40954723
       50.80480       25.92474340        0.40192638
       50.90450       26.97474600        0.37162801
       51.00419       27.02191977        0.37689252
       51.10389       28.53019646        0.40033465
       51.20358       30.04382955        0.43784552
       51.30327       32.41057964        0.45223427
       51.40297       36.62598208        0.46054126
       51.50266       45.89457270        0.51966504
       51.60235       58.68565389        0.60051560
       51.70205       75.89689596        0.72930958
       51.80174       94.95746824        0.75525890
       51.90143      120.30366598        0.79913991
       52.00113      140.23636537        0.86882248
       52.10082      150.86921927        0.93399512
       52.20051      145.36102594        1.00554583
       52.30021      136.93015611        0.93576606
       52.39990      119.46432229        0.85398887
       52.49959       99.34975489        0.79031501
       52.59929       81.51197108        0.72654496
       52.69898       65.40067033        0.71235757
       52.79867       54.03761016        0.54550138
       52.89837       40.95506269        0.45629929
       52.99806       33.93603982        0.42117172
       53.09775       30.69936210        0.41195165
       53.19745       29.31351701        0.46020697
       53.29714       27.82023874        0.39601002
       53.39683       26.66430621        0.40370971
       53.49653       27.09720727        0.41046120
       53.59622       27.17594747        0.41110408
       53.69591       25.82472955        0.44041992
       53.79561       25.33453811        0.36486063
       53.89530       26.53432484        0.36836166
       53.99499       24.67026521        0.36122080
       54.09469       25.71263734        0.38689613
       54.19438       25.30534819        0.41812671
       54.29407       25.06454643        0.38441145
       54.39377       25.40690341        0.39012497
       54.49346       25.42901856        0.39107763
       54.59315       25.67031158        0.39912308
       54.69285       25.09871479        0.42053669
       54.79254       25.05872036        0.35986214
       54.89223       24.64263747        0.35361105
       54.99193       24.48793554        0.36345387
       55.09162       24.65690817        0.38102945
       55.19131       25.42698604        0.41690741
       55.29101       25.20102542        0.38627243
       55.39070       24.95337925        0.39608496
       55.49039       25.18271069        0.39538681
       55.59009       25.66912713        0.41151865
       55.68978       24.98440904        0.41566401
       55.78948       25.87636699        0.36914569
       55.88917       27.26927079        0.37985703
       55.98886       29.16133655        0.39680164
       56.08856       31.86068277        0.42907589
       56.18825       35.16726080        0.48753889
       56.28794       37.20443625        0.45807419
       56.38764       39.29190176        0.48617379
       56.48733       40.65442813        0.50057689
       56.58702       41.23324650        0.51813634
       56.68672       41.54078927        0.53705211
       56.78641       41.69464881        0.46473135
       56.88610       41.00767544        0.46552016
       56.98580       40.65587476        0.46382091
       57.08549       40.61545906        0.49198341
       57.18518       40.86465434        0.51138881
       57.28488       38.46858413        0.46089477
       57.38457       34.90429207        0.46459823
       57.48426       32.81070282        0.45986033
       57.58396       30.61180864        0.45651180
       57.68365       27.95924223        0.44183564
       57.78334       25.90294362        0.37184227
       57.88304       25.65688421        0.37436738
       57.98273       24.81621550        0.37350906
       58.08242       24.01453371        0.39565501
       58.18212       25.07200725        0.41247445
       58.28181       24.78240398        0.38472165
       58.38150       25.05062850        0.40753289
       58.48120       27.04867683        0.43424827
       58.58089       28.73560065        0.45375078
       58.68058       30.69665664        0.45903627
       58.78028       35.52623382        0.43117937
       58.87997       44.41721567        0.47394847
       58.97966       56.99215684        0.55670708
       59.07936       70.09653937        0.65958774
       59.17905       79.10777909        0.71213624
       59.27874       89.07760606        0.72093240
       59.37844       93.76340875        0.76535706
       59.47813       92.64459241        0.79222926
       59.57782       85.29383622        0.79224117
       59.67752       76.32898958        0.69578731
       59.77721       62.91770778        0.57845180
       59.87690       47.52736641        0.49700020
       59.97660       37.14715182        0.45978783
       60.07629       32.08497819        0.46327559
       60.17598       28.92554989        0.42148207
       60.27568       25.80021844        0.38618675
       60.37537       26.00219871        0.39464446
       60.47507       24.85080910        0.40085495
       60.57476       23.53350071        0.42805897
       60.67445       24.14255801        0.37105338
       60.77415       23.07949581        0.34439633
       60.87384       23.94072967        0.34626290
       60.97353       23.40193016        0.36156672
       61.07323       23.95256313        0.41237399
       61.17292       23.65788100        0.35420022
       61.27261       23.05251254        0.36117963
       61.37231       23.98933592        0.38120366
       61.47200       23.33174196        0.39115224
       61.57169       22.55909232        0.43726140
       61.67139       23.64871067        0.36572244
       61.77108       22.98626225        0.35325245
       61.87077       22.88658301        0.34996969
       61.97047       23.12069153        0.36460425
       62.07016       22.57995952        0.40786053
       62.16985       22.96297185        0.36031126
       62.26955       22.79919955        0.37264139
       62.36924       22.41030134        0.38181196
       62.46893       22.49025003        0.39710519
       62.56863       22.54197551        0.44724579
       62.66832       23.17058339        0.36817492
       62.76801       23.55578200        0.36171297
       62.86771       23.12271872        0.34993029
       62.96740       22.64278180        0.35567042
       63.06709       22.65083781        0.39637397
       63.16679       22.39692092        0.34767634
       63.26648       22.94114371        0.36352480
       63.36617       22.98457238        0.37968075
       63.46587       22.93135606        0.39268123
       63.56556       23.46117238        0.42316706
       63.66525       23.15107463        0.35551963
       63.76495       22.45188786        0.33981910
       63.86464       22.66116703        0.33930585
       63.96433       22.81131172        0.35586306
       64.06403       22.71016959        0.37900282
       64.16372       23.30512858        0.35695074
       64.26341       23.57259170        0.37648318
       64.36311       23.68460512        0.38513200
       64.46280       24.15834690        0.41071375
       64.56249       22.88118947        0.40575695
       64.66219       24.59998233        0.36767326
       64.76188       23.57644538        0.35450932
       64.86157       23.66301553        0.35329954
       64.96127       24.05464711        0.37482047
       65.06096       24.19038052        0.40819143
       65.16066       24.65422360        0.37380318
       65.26035       25.31937305        0.38654943
       65.36004       25.52408819        0.40385152
       65.45974       26.09921572        0.42143890
       65.55943       27.14168156        0.44907416
       65.65912       27.50551328        0.39146940
       65.75882       28.68077958        0.39610593
       65.85851       31.35462280        0.41476501
       65.95820       35.56689312        0.46577612
       66.05790       38.33665219        0.50022598
       66.15759       42.53754285        0.50092719
       66.25728       46.44029126        0.53902487
       66.35698       52.18102381        0.59405600
       66.45667       57.47768336        0.66191312
       66.55636       66.52979540        0.71023138
       66.65606       77.84710988        0.68397737
       66.75575      101.94700112        0.77366182
       66.85544      142.73567469        0.91586196
       66.95514      197.00593128        1.13003975
       67.05483      259.08154578        1.31816173
       67.15452      341.64189731        1.46009903
       67.25422      434.64949459        1.75215765
       67.35391      514.99173786        2.02236076
       67.45360      583.00553697        2.30699019
       67.55330      629.87896095        2.33348209
       67.65299      672.77491032        2.19266210
       67.75268      683.08964242        2.18578803
       67.85238      663.03332640        2.16756725
       67.95207      618.26846352        2.21786560
       68.05176      563.91577496        1.98450310
       68.15146      477.45760432        1.77471210
       68.25115      402.13298831        1.70600850
       68.35084      346.46052129        1.64624540
       68.45054      311.99456911        1.71846569
       68.55023      273.51845223        1.37628456
       68.64992      222.82803435        1.14140751
       68.74962      169.38261862        0.99342390
       68.84931      123.04118656        0.85024082
       68.94900       95.46719527        0.84181376
       69.04870       66.80842824        0.58879306
       69.14839       49.86400586        0.52559525
       69.24808       41.20784766        0.51433603
       69.34778       35.49593133        0.49157387
       69.44747       33.28249479        0.54964213
       69.54716       30.36352315        0.40888753
       69.64686       27.99606977        0.38620365
       69.74655       27.70854119        0.38619868
       69.84625       26.16774761        0.38401461
       69.94594       25.89195323        0.43111053
       70.04563       26.49444548        0.36199666
       70.14533       25.92100413        0.37364598
       70.24502       25.96757477        0.39940265
       70.34471       26.91447055        0.42988264
       70.44441       27.68608172        0.51216316
       70.54410       27.97857764        0.40257372
       70.64379       28.75536004        0.40562438
       70.74349       29.41096812        0.41632478
       70.84318       29.72925583        0.43836465
       70.94287       29.80007276        0.48448813
       71.04257       30.50562781        0.40464533
       71.14226       29.66109156        0.41325587
       71.24195       28.11202576        0.42237838
       71.34165       27.48504655        0.44083752
       71.44134       26.76682672        0.48419206
       71.54103       25.46564295        0.38421924
       71.64073       25.14855732        0.37453985
       71.74042       24.63002757        0.36660268
       71.84011       24.30753820        0.37765730
       71.93981       23.89880136        0.40723879
       72.03950       23.89013714        0.34331821
       72.13919       24.12409955        0.35947051
       72.23889       23.40043309        0.36784834
       72.33858       23.22849326        0.40836213
       72.43827       22.02011538        0.43695489
       72.53797       24.11032497        0.37262311
       72.63766       24.21969296        0.36649566
       72.73735       23.30763607        0.35048297
       72.83705       24.02846969        0.37489525
       72.93674       24.22368924        0.39942224
       73.03643       25.89906514        0.35719452
       73.13613       26.91434234        0.38243327
       73.23582       28.68975554        0.41641260
       73.33551       29.41894087        0.46726287
       73.43521       30.10437213        0.51340701
       73.53490       30.38726598        0.41587830
       73.63459       32.45498237        0.42286936
       73.73429       33.76740000        0.42811068
       73.83398       34.48500478        0.45807819
       73.93367       35.25293124        0.48692917
       74.03337       35.47476157        0.43035915
       74.13306       35.96109309        0.45646045
       74.23276       36.64753247        0.48184702
       74.33245       36.87840455        0.53130864
       74.43214       36.41100581        0.54528628
       74.53184       35.91909116        0.45963392
       74.63153       35.48310405        0.45326526
       74.73122       33.78891341        0.43887913
       74.83092       31.59448525        0.44845401
       74.93061       29.41024106        0.43791131
       75.03030       26.88608729        0.37739669
       75.13000       24.44029196        0.37193379
       75.22969       23.83970200        0.38278178
       75.32938       22.70326278        0.40909864
       75.42908       21.44254941        0.40253691
       75.52877       20.81107174        0.34389120
       75.62846       19.89324188        0.33390531
       75.72816       20.54379448        0.33952629
       75.82785       20.36100412        0.36617812
       75.92754       20.59827997        0.34827642
       76.02724       20.45667646        0.32378592
       76.12693       20.41268861        0.33643986
       76.22662       20.07376703        0.35200077
       76.32632       20.19961282        0.39871904
       76.42601       20.22781924        0.37338797
       76.52570       19.47657617        0.33687438
       76.62540       19.81745971        0.33948810
       76.72509       20.02151120        0.33835055
       76.82478       20.10657543        0.39127018
       76.92448       19.59682284        0.30694596
       77.02417       20.23693153        0.32264305
       77.12386       19.83949594        0.33488427
       77.22356       19.95722203        0.35629033
       77.32325       18.41353339        0.41834091
       77.42294       20.15043930        0.35044352
       77.52264       19.37378822        0.33717000
       77.62233       20.10841623        0.34184565
       77.72202       19.68076409        0.33737861
       77.82172       20.05226239        0.39788558
       77.92141       19.60330609        0.30156247
       78.02110       19.21372662        0.32137342
       78.12080       19.22257356        0.34095557
       78.22049       19.79866868        0.36805681
       78.32018       20.51807986        0.43645706
       78.41988       20.09886489        0.34141691
       78.51957       19.99875902        0.35086927
       78.61926       19.87352146        0.34737903
       78.71896       19.85450028        0.34785121
       78.81865       20.60334807        0.39488983
       78.91835       19.71400066        0.29778859
       79.01804       19.79446678        0.32854333
       79.11773       20.33086387        0.34892967
       79.21743       20.70835215        0.37646672
       79.31712       19.78337737        0.41424855
       79.41681       21.15804305        0.34555335
       79.51651       21.44187856        0.35405221
       79.61620       22.31052424        0.36152613
       79.71589       23.83325939        0.38717951
       79.81559       25.18116027        0.42065843
       79.91528       28.02402707        0.37730472
       80.01497       30.54495634        0.41062878
       80.11467       32.83266626        0.44366044
       80.21436       33.59174397        0.47892197
       80.31405       35.41598780        0.58404223
       80.41375       34.98657187        0.44414307
       80.51344       35.82381652        0.44737419
       80.61313       35.31653367        0.45609523
       80.71283       37.10257461        0.48602248
       80.81252       35.58570734        0.53619331
       80.91221       34.97302191        0.39656177
       81.01191       31.67429946        0.40423596
       81.11160       29.37944650        0.41917856
       81.21129       27.01677358        0.43388248
       81.31099       25.85695183        0.47263080
       81.41068       23.54193921        0.35102538
       81.51037       21.71424638        0.34568697
       81.61007       21.38747321        0.36236109
       81.70976       20.96458516        0.37181275
       81.80945       20.77577524        0.39364437
       81.90915       20.36202184        0.29684306
       82.00884       20.29069139        0.31714041
       82.10853       20.29469983        0.35339486
       82.20823       19.59086437        0.38402579
       82.30792       19.22086444        0.39769872
       82.40761       19.72608839        0.32929320
       82.50731       19.64081259        0.33242601
       82.60700       20.68319136        0.36540794
       82.70669       20.73315804        0.39839713
       82.80639       19.90824821        0.37199247
       82.90608       20.04424443        0.30249445
       83.00577       19.55371099        0.31599323
       83.10547       20.06070565        0.37589686
       83.20516       20.18956460        0.42251061
       83.30485       20.27379113        0.40457207
       83.40455       21.19038356        0.34522595
       83.50424       21.31513017        0.33609043
       83.60394       21.67470838        0.37318420
       83.70363       21.65978134        0.41931432
       83.80332       21.90501010        0.36901470
       83.90302       22.68251218        0.31392327
       84.00271       22.59516010        0.32610043
       84.10240       23.84736885        0.40566207
       84.20210       24.80646458        0.50267259
       84.30179       24.37235755        0.40519697
       84.40148       24.50165324        0.35684343
       84.50118       24.14742428        0.34787722
       84.60087       25.16113834        0.40030331
       84.70056       24.20409997        0.51053852
       84.80026       24.18783498        0.35657938
       84.89995       23.06157561        0.31421162
       84.99964       23.35403747        0.32915724
       85.09934       22.60094225        0.38151752
       85.19903       21.94872330        0.64371173
       85.29872       21.05302084        0.33162343
       85.39842       20.71004455        0.33427479
       85.49811       19.60388738        0.31588986
       85.59780       19.59847452        0.35380934
       85.69750       20.62737469        0.65305620
       85.79719       20.38464522        0.31003436
       85.89688       19.75953540        0.29808027
       85.99658       19.31729448        0.30167245
       86.09627       19.35299950        0.34603952
       86.19596       20.16677590        0.68177342
       86.29566       19.38240390        0.31455470
       86.39535       19.37058579        0.31778692
       86.49504       19.27095522        0.31195002
       86.59474       19.91963932        0.34290971
       86.69443       21.30915660        0.74329794
       86.79412       19.53094407        0.29607688
       86.89382       19.65100681        0.28927432
       86.99351       20.49891451        0.30681602
       87.09320       20.68831192        0.34182567
       87.19290       22.06052462        0.83765347
       87.29259       20.45344004        0.32461030
       87.39228       22.02355968        0.34512336
       87.49198       23.11162345        0.34647783
       87.59167       22.11868960        0.34298200
       87.69136       24.19986631        1.07361433
       87.79106       22.33519417        0.31972390
       87.89075       22.85605002        0.32086245
       87.99044       22.45480773        0.32916151
       88.09014       22.78320966        0.35215742
       88.18983       22.51307453        1.86307885
       88.28953       23.12137125        0.36140535
       88.38922       22.46180858        0.35960584
       88.48891       22.01766110        0.33995150
       88.58861       20.86243990        0.31935041
       88.68830       22.20078478        2.58205645
       88.78799       20.49467838        0.30536499
       88.88769       20.12810990        0.29406580
       88.98738       19.20361582        0.29976906
       89.08707       19.45674768        0.31230872
       89.18677       20.09882428        2.58686313
       89.28646       19.07617847        0.31328751
       89.38615       19.17271366        0.31521542
       89.48585       19.09563402        0.30862591
       89.58554       18.81661978        0.29888166
       89.68523       18.86372537        2.41866413
       89.78493       18.59160822        0.28692397
       89.88462       19.90265130        0.29436804
       89.98431       19.34088087        0.29945519
       90.08401       19.81290058        0.31180103
       90.18370       17.61637442        2.43257498
       90.28339       18.88865023        0.31046660
       90.38309       19.57775851        0.32101763
       90.48278       19.25590827        0.31121649
       90.58247       19.61197988        0.30904266
       90.68217       19.43385644        2.42862531
       90.78186       20.37671724        0.30559805
       90.88155       20.54001820        0.29918073
       90.98125       20.40512508        0.30648850
       91.08094       20.26510754        0.31519852
       91.18063       18.92109512        2.42738955
       91.28033       21.00146638        0.32976792
       91.38002       21.12992618        0.33788678
       91.47971       21.98141445        0.33635823
       91.57941       22.41531331        0.33336717
       91.67910       22.82853555        2.54886484
       91.77879       23.65904375        0.32811963
       91.87849       26.16352183        0.33808242
       91.97818       29.37436039        0.37221092
       92.07787       32.96590191        0.40932456
       92.17757       36.47294056        3.27189467
       92.27726       37.88823696        0.45238541
       92.37695       45.05485459        0.51003390
       92.47665       55.91402017        0.54711767
       92.57634       71.08025125        0.59537086
       92.67603       85.47389840        4.27836150
       92.77573       94.16316402        0.66308724
       92.87542      126.63667542        0.75768427
       92.97512      149.40697667        0.86032452
       93.07481      170.47047320        1.05175246
       93.17450      179.88738600        2.04157978
       93.27420      195.22378249        1.05436886
       93.37389      210.15290398        1.06713073
       93.47358      226.73270019        1.11786991
       93.57328      247.56403792        1.35732547
       93.67297      251.76977126        1.84710322
       93.77266      263.42005106        1.17288068
       93.87236      268.73511723        1.12545195
       93.97205      275.02536139        1.20017798
       94.07174      271.17638342        1.55806959
       94.17144      268.65946777        1.77112125
       94.27113      255.00336592        1.27291920
       94.37082      237.69097549        1.18690539
       94.47052      224.07767925        1.10386378
       94.57021      217.92413062        1.43430055
       94.66990      211.50704819        1.42404424
       94.76960      206.70717450        1.08838449
       94.86929      201.34876606        0.98606722
       94.96898      189.18580703        0.96792302
       95.06868      175.31756546        1.06630176
       95.16837      167.27918225        1.41956557
       95.26806      157.92994100        1.06333860
       95.36776      146.49616639        0.92586156
       95.46745      135.14128102        0.85201307
       95.56714      124.81496426        0.93695005
       95.66684      120.33008654        1.03997833
       95.76653      116.51804330        0.84984273
       95.86622      102.75112848        0.67750599
       95.96592       85.07966314        0.63333419
       96.06561       72.23274288        0.74564427
       96.16530       65.56439398        0.75302306
       96.26500       57.12499007        0.63059981
       96.36469       47.79582194        0.51343044
       96.46438       43.63866661        0.47687119
       96.56408       39.86639155        0.56877430
       96.66377       38.03278737        0.53940321
       96.76346       36.29299831        0.46925732
       96.86316       34.36148826        0.39382433
       96.96285       32.32530741        0.39388218
       97.06254       32.44228225        0.53180066
       97.16224       32.20954353        0.50706706
       97.26193       31.55821358        0.46932692
       97.36162       31.89151426        0.44155267
       97.46132       32.31712018        0.41294600
       97.56101       31.21773201        0.51242562
       97.66071       30.82003655        0.45555210
       97.76040       30.14998713        0.40950916
       97.86009       29.90851709        0.36760054
       97.95979       28.77647356        0.36637010
       98.05948       27.73756971        0.50292892
       98.15917       28.32909864        0.45396226
       98.25887       27.83587682        0.43234990
       98.35856       27.39460264        0.40312779
       98.45825       27.21910309        0.37358296
       98.55795       27.08526177        0.48622083
       98.65764       28.15124567        0.42485911
       98.75733       26.10697045        0.38025389
       98.85703       25.34485983        0.34919182
       98.95672       25.11548458        0.34887437
       99.05641       24.14302080        0.47687729
       99.15611       23.88914588        0.40687509
       99.25580       23.52466128        0.38937702
       99.35549       22.84699276        0.36455823
       99.45519       22.59227317        0.33750719
       99.55488       22.89229465        0.45350658
       99.65457       22.59133559        0.37103327
       99.75427       22.33886255        0.34548201
       99.85396       23.27570930        0.33982408
       99.95365       22.94826508        0.33071080
      100.05335       22.54685472        0.46459156
      100.15304       21.89336997        0.38444031
      100.25273       21.73119698        0.37853373
      100.35243       21.30830919        0.37203324
      100.45212       21.06075181        0.33734464
      100.55181       21.96396209        0.45354502
      100.65151       20.53199882        0.35849332
      100.75120       21.60091743        0.34242022
      100.85089       21.44981335        0.32536723
      100.95059       20.67791570        0.31026679
      101.05028       20.85315615        0.44449763
      101.14997       19.93122050        0.35797893
      101.24967       20.38195174        0.35673599
      101.34936       19.99509859        0.35483593
      101.44905       20.39883490        0.33994715
      101.54875       19.95371102        0.42247070
      101.64844       19.82430398        0.34260031
      101.74813       19.61586955        0.31959357
      101.84783       19.33850475        0.30755068
      101.94752       19.22266897        0.32300889
      102.04722       20.00720185        0.39607575
      102.14691       19.18167023        0.34904463
      102.24660       19.62041842        0.35014399
      102.34630       19.93471089        0.35562933
      102.44599       19.46099917        0.35645716
      102.54568       18.83832978        0.36706569
      102.64538       19.05434612        0.32915560
      102.74507       18.57146589        0.30860953
      102.84476       18.65308300        0.30296893
      102.94446       18.85890111        0.34552217
      103.04415       19.04786945        0.37092192
      103.14384       18.68262119        0.34421363
      103.24354       19.59705913        0.34772098
      103.34323       18.79521681        0.33709668
      103.44292       18.67564743        0.36358363
      103.54262       19.43613339        0.36007815
      103.64231       18.45422801        0.31848101
      103.74200       18.74460835        0.30563666
      103.84170       18.84823001        0.30050260
      103.94139       18.49742589        0.36152706
      104.04108       18.77048423        0.35272886
      104.14078       19.64585277        0.34960176
      104.24047       19.26697992        0.34529003
      104.34016       18.30307806        0.33791380
      104.43986       18.98932488        0.39203363
      104.53955       18.23466893        0.34629684
      104.63924       18.68786767        0.32877352
      104.73894       18.81153616        0.31702619
      104.83863       18.70311282        0.30683599
      104.93832       19.39291013        0.37840050
      105.03802       19.09468246        0.35241062
      105.13771       19.17807281        0.33981222
      105.23740       19.66181394        0.34278863
      105.33710       19.49627654        0.34208759
      105.43679       18.86113211        0.39165248
      105.53648       19.21390244        0.35565163
      105.63618       19.33259550        0.32814843
      105.73587       19.86085778        0.31821479
      105.83556       19.91608364        0.30983039
      105.93526       19.57019217        0.38844775
      106.03495       19.28968911        0.34922762
      106.13464       20.07809338        0.34392994
      106.23434       19.70190646        0.34265556
      106.33403       19.59169276        0.34538090
      106.43372       19.22118052        0.40913683
      106.53342       19.97983087        0.36345006
      106.63311       19.83654702        0.32927062
      106.73281       19.63941407        0.31114814
      106.83250       19.51865629        0.30482924
      106.93219       19.83052915        0.39764794
      107.03189       19.43016941        0.34877509
      107.13158       19.37806987        0.33735094
      107.23127       19.08410316        0.34098555
      107.33097       20.04396526        0.34968935
      107.43066       19.37836733        0.41418680
      107.53035       19.30235712        0.35528937
      107.63005       18.98015488        0.32055588
      107.72974       19.28054083        0.30956705
      107.82943       18.99423496        0.30291099
      107.92913       18.41552940        0.39420481
      108.02882       18.55720966        0.34692511
      108.12851       18.27882286        0.32911111
      108.22821       19.21053763        0.33269136
      108.32790       19.28309610        0.32903278
      108.42759       18.87078697        0.41268378
      108.52729       19.83316713        0.35880425
      108.62698       19.71988200        0.32342725
      108.72667       19.70401954        0.30987726
      108.82637       20.03283394        0.32014109
      108.92606       20.86460630        0.41597760
      109.02575       21.97758234        0.37358895
      109.12545       21.21954840        0.35743621
      109.22514       21.74574905        0.36093156
      109.32483       23.27347191        0.40618557
      109.42453       23.78609462        0.43293861
      109.52422       22.61808913        0.38075392
      109.62391       23.12638834        0.36581317
      109.72361       24.21431555        0.35850286
      109.82330       25.35428869        0.34522721
      109.92299       23.92891119        0.43602860
      110.02269       25.00618557        0.38874333
      110.12238       25.29887430        0.38816648
      110.22207       25.56301071        0.38684661
      110.32177       25.37301436        0.39286755
      110.42146       25.49158846        0.47724716
      110.52115       25.68720064        0.40762414
      110.62085       25.89231299        0.38731430
      110.72054       25.79821845        0.36298477
      110.82023       26.08770651        0.37570727
      110.91993       25.52038184        0.43167127
      111.01962       25.05403790        0.39513469
      111.11931       25.10988345        0.39743050
      111.21901       25.08757975        0.38930847
      111.31870       24.70155847        0.41834963
      111.41840       24.23100357        0.43132383
      111.51809       23.83472800        0.39023652
      111.61778       23.82292624        0.36734314
      111.71748       23.18644311        0.33584684
      111.81717       22.35043128        0.35683064
      111.91686       22.37019347        0.37522182
      112.01656       22.06506819        0.36382465
      112.11625       21.94687192        0.36508780
      112.21594       22.73567382        0.37089593
      112.31564       22.42149143        0.40823268
      112.41533       21.76047313        0.39483497
      112.51502       21.79303255        0.36324269
      112.61472       21.42901460        0.34318702
      112.71441       21.16005707        0.32112484
      112.81410       21.30341811        0.36020252
      112.91380       21.39561744        0.36729722
      113.01349       20.52412989        0.35281856
      113.11318       21.40461814        0.36064145
      113.21288       21.02813570        0.35685167
      113.31257       21.12229881        0.39522280
      113.41226       19.71373090        0.36200205
      113.51196       19.91296767        0.34208294
      113.61165       20.25674390        0.33300632
      113.71134       18.73023758        0.30485920
      113.81104       18.88514093        0.35076811
      113.91073       19.68628514        0.34920104
      114.01042       19.32942991        0.34307837
      114.11012       19.29250837        0.34217655
      114.20981       19.73127612        0.34755481
      114.30950       19.18225695        0.38826199
      114.40920       18.66516742        0.35351101
      114.50889       19.19932649        0.33565875
      114.60858       18.83861530        0.32242063
      114.70828       19.17624522        0.31432689
      114.80797       18.68152044        0.35356454
      114.90766       18.59073485        0.33195722
      115.00736       18.68096369        0.33052518
      115.10705       18.53561193        0.33027253
      115.20674       18.66195871        0.33657975
      115.30644       18.28619701        0.38161821
      115.40613       18.29575588        0.34619341
      115.50582       18.50315729        0.32940651
      115.60552       18.50141530        0.31892794
      115.70521       19.02411841        0.31135595
      115.80490       18.79735526        0.36010511
      115.90460       17.87843647        0.31762626
      116.00429       18.57687835        0.32762899
      116.10399       18.81182609        0.33182656
      116.20368       18.86927888        0.33970827
      116.30337       19.02246695        0.40745160
      116.40307       19.15498213        0.35744089
      116.50276       19.11695439        0.33825446
      116.60245       19.17735187        0.32569886
      116.70215       18.83153889        0.31096322
      116.80184       18.62450585        0.36684543
      116.90153       19.06164419        0.33409281
      117.00123       18.33043189        0.32466358
      117.10092       18.63061440        0.33592834
      117.20061       19.76242603        0.35133229
      117.30031       19.20843778        0.41641824
      117.40000       19.80373866        0.35423702
      117.49969       19.23802823        0.33136401
      117.59939       20.14273743        0.32360106
      117.69908       20.32437385        0.31468425
      117.79877       20.79812703        0.39039331
      117.89847       21.51315361        0.34480471
      117.99816       21.86892057        0.35273271
      118.09785       23.48295601        0.37451630
      118.19755       23.97767624        0.39537800
      118.29724       23.71264174        0.42850996
      118.39693       26.04092771        0.40981516
      118.49663       27.28725460        0.39465358
      118.59632       29.19171899        0.39298125
      118.69601       31.76432700        0.42862650
      118.79571       34.65651054        0.48461647
      118.89540       38.78976831        0.47964522
      118.99509       42.65319082        0.50341971
      119.09479       48.31960247        0.54054696
      119.19448       54.24196227        0.62443409
      119.29417       60.06288532        0.68402003
      119.39387       66.82515719        0.66492881
      119.49356       75.65666225        0.66655018
      119.59325       89.02899738        0.70537338
      119.69295       99.64186481        0.79099101
      119.79264      109.94376481        0.84314665
      119.89233      123.60715286        0.86854727
      119.99203      136.65358366        0.89381904
      120.09172      148.47722758        0.95260605
      120.19141      157.81899757        1.10375938
      120.29111      165.81881590        1.11941683
      120.39080      174.94070935        1.10025727
      120.49049      184.06601350        1.05457832
      120.59019      193.83830657        1.05342309
      120.68988      205.64516112        1.17187188
      120.78958      212.11985580        1.16352990
      120.88927      221.24345506        1.17052948
      120.98896      225.48989020        1.17020887
      121.08866      234.88384246        1.20153757
      121.18835      239.89670560        1.39641765
      121.28804      245.30211833        1.37770457
      121.38774      249.32161072        1.31839417
      121.48743      252.88138722        1.25788591
      121.58712      255.82970788        1.20680639
      121.68682      249.84537392        1.31199000
      121.78651      247.82339135        1.24637162
      121.88620      244.98323525        1.22321579
      121.98590      237.75864301        1.21086176
      122.08559      226.63250324        1.20270058
      122.18528      225.03060043        1.39891847
      122.28498      218.63087363        1.29332529
      122.38467      206.63072727        1.20004694
      122.48436      195.79634602        1.10227275
      122.58406      183.09235434        1.00611772
      122.68375      173.79018407        1.10808274
      122.78344      160.53953988        0.99740622
      122.88314      152.03881729        0.96231074
      122.98283      140.56332745        0.94322925
      123.08252      132.84575996        0.91244763
      123.18222      125.94909936        1.03324585
      123.28191      115.26637777        0.89380282
      123.38160      108.61678547        0.83655943
      123.48130      101.15285941        0.77593013
      123.58099       93.42348398        0.69542250
      123.68068       86.35689790        0.76162809
      123.78038       80.37749236        0.66266270
      123.88007       72.79038953        0.61819139
      123.97976       66.81701850        0.60114828
      124.07946       60.68594363        0.56562999
      124.17915       55.39108562        0.60780978
      124.27884       51.51768644        0.52438367
      124.37854       48.66455287        0.47911027
      124.47823       44.47304399        0.44787256
      124.57792       39.99762147        0.45217212
