        5.04553       58.67312763        1.21458483
        5.14523       56.43594424        1.13922468
        5.24492       55.39798545        1.11290732
        5.34461       56.56407215        1.03553170
        5.44431       54.79489850        1.11435441
        5.54400       55.58960753        0.93569633
        5.64369       53.85468202        0.92519180
        5.74339       55.37467880        0.84112415
        5.84308       55.76534227        0.85438421
        5.94277       55.46461517        0.84982093
        6.04247       55.83547282        0.82714983
        6.14216       55.48999580        0.75903574
        6.24185       55.56989345        0.78276344
        6.34155       56.72015095        0.75469760
        6.44124       55.56985982        0.78731013
        6.54093       54.43933729        0.73869849
        6.64063       56.13121107        0.71122687
        6.74032       56.19560005        0.71165821
        6.84001       55.64469218        0.70405404
        6.93971       56.27131137        0.71423309
        7.03940       57.25212957        0.67125615
        7.13909       56.58583091        0.66427589
        7.23879       56.36986630        0.65360443
        7.33848       55.87705259        0.66071165
        7.43817       57.08951309        0.65391249
        7.53787       57.95539067        0.65045098
        7.63756       57.07250908        0.61548578
        7.73725       58.49280377        0.64803718
        7.83695       58.51306947        0.62704243
        7.93664       58.53169860        0.65424208
        8.03633       58.50490173        0.58893570
        8.13603       59.39177906        0.58656278
        8.23572       59.29362370        0.59759021
        8.33541       59.25275765        0.59144217
        8.43511       60.14715880        0.63060935
        8.53480       59.74109340        0.58228882
        8.63449       61.25585902        0.58436101
        8.73419       60.21573961        0.56553425
        8.83388       61.19659668        0.57345384
        8.93357       61.09141639        0.57167106
        9.03327       62.11990210        0.56154640
        9.13296       62.47041065        0.56025916
        9.23265       62.58358897        0.56773057
        9.33235       64.00989541        0.59120133
        9.43204       62.56449339        0.58204432
        9.53174       64.45269712        0.56791110
        9.63143       63.21872418        0.58116051
        9.73112       65.13269094        0.59020442
        9.83082       66.48084550        0.62233643
        9.93051       65.70059800        0.60937062
       10.03020       66.36567322        0.59209774
       10.12990       67.41152652        0.58259963
       10.22959       67.31244122        0.60578986
       10.32928       68.25939061        0.63567475
       10.42898       69.94076628        0.63538550
       10.52867       69.17231779        0.61106370
       10.62836       69.88177842        0.61414030
       10.72806       70.79688493        0.62595539
       10.82775       71.22945570        0.62636713
       10.92744       72.02036192        0.63930271
       11.02714       73.21799694        0.61586050
       11.12683       72.78336482        0.63461902
       11.22652       74.67203849        0.65058684
       11.32622       76.37912509        0.67559193
       11.42591       77.08228720        0.65499295
       11.52560       77.85955728        0.65098745
       11.62530       78.32794886        0.65881896
       11.72499       78.14794369        0.66993584
       11.82468       79.74151496        0.69525420
       11.92438       80.22663871        0.66268966
       12.02407       82.25528826        0.66377117
       12.12376       82.31871331        0.66802815
       12.22346       84.15697029        0.71698212
       12.32315       85.31906689        0.72913038
       12.42284       85.26526830        0.69496453
       12.52254       86.65160075        0.69522897
       12.62223       88.00235247        0.72023921
       12.72192       89.03840430        0.70399497
       12.82162       90.66668640        0.76769155
       12.92131       91.28792468        0.70728386
       13.02100       93.48488130        0.70766575
       13.12070       94.70425210        0.72419071
       13.22039       95.18071692        0.74733282
       13.32008       97.14219138        0.78402685
       13.41978       98.39249680        0.75028736
       13.51947      100.25298177        0.77169837
       13.61916      102.14866956        0.75237348
       13.71886      103.41659127        0.79407526
       13.81855      105.96179074        0.81633936
       13.91824      106.86734144        0.77170735
       14.01794      108.37878079        0.76045438
       14.11763      110.43068885        0.79531169
       14.21733      111.95393984        0.80498270
       14.31702      114.68491911        0.85619543
       14.41671      114.60976517        0.83013005
       14.51641      117.84716730        0.81914308
       14.61610      119.73901370        0.83008204
       14.71579      122.96968472        0.85712556
       14.81549      122.88976016        0.89873762
       14.91518      125.62382621        0.83128939
       15.01487      125.83250628        0.84707008
       15.11457      129.77472927        0.87120255
       15.21426      131.60457840        0.90421819
       15.31395      135.46175645        0.94218729
       15.41365      136.74600316        0.91622474
       15.51334      137.65846368        0.89171189
       15.61303      140.18900416        0.92705149
       15.71273      142.21828643        0.91763424
       15.81242      144.49345234        0.97034172
       15.91211      147.24600034        0.94541546
       16.01181      147.61346045        0.90982191
       16.11150      149.28676372        0.94275559
       16.21119      151.86128732        0.97865873
       16.31089      151.86642718        0.98009688
       16.41058      154.84755389        0.96987640
       16.51027      155.39496415        0.98899064
       16.60997      154.29641325        0.95050765
       16.70966      155.16966376        0.97676449
       16.80935      155.01497867        0.98795716
       16.90905      154.20399557        0.95564981
       17.00874      152.19536820        0.90912603
       17.10843      150.35353938        0.95740343
       17.20813      148.09363087        0.95654724
       17.30782      145.14667251        0.95411776
       17.40751      143.82057362        0.94878591
       17.50721      141.25886099        0.91040827
       17.60690      137.77776394        0.92829097
       17.70659      134.60981170        0.92127936
       17.80629      132.69032843        0.92517602
       17.90598      130.43514650        0.85785349
       18.00567      129.33748249        0.86948694
       18.10537      126.58882682        0.83641557
       18.20506      121.29629117        0.89593760
       18.30475      119.71770855        0.84879166
       18.40445      118.00346157        0.81971311
       18.50414      116.59892527        0.84128947
       18.60383      112.91131919        0.81405589
       18.70353      112.30988958        0.85876916
       18.80322      109.90784767        0.79887185
       18.90292      107.98025468        0.78359714
       19.00261      106.15004636        0.75303953
       19.10230      103.08406344        0.79041416
       19.20200      100.78684934        0.79941523
       19.30169       98.73157358        0.76250782
       19.40138       98.53355180        0.75474637
       19.50108       98.41730127        0.77146615
       19.60077       95.50589661        0.75194311
       19.70046       94.12401868        0.78213461
       19.80016       92.18745208        0.73268606
       19.89985       91.54431772        0.70868966
       19.99954       91.28759369        0.71472049
       20.09924       88.72493881        0.71287459
       20.19893       87.05258910        0.75461739
       20.29862       86.83653205        0.71388147
       20.39832       85.70423062        0.73172381
       20.49801       83.53392351        0.70828723
       20.59770       82.75036542        0.71923407
       20.69740       82.16207162        0.74199712
       20.79709       80.82928928        0.70064283
       20.89678       79.32961819        0.67638044
       20.99648       78.16642797        0.68223964
       21.09617       78.02647188        0.71164952
       21.19586       78.20124287        0.71214058
       21.29556       77.42339699        0.69230877
       21.39525       75.93799951        0.68645884
       21.49494       75.12036413        0.67070805
       21.59464       73.77831917        0.67893771
       21.69433       73.67429356        0.70641525
       21.79402       73.44140746        0.64385039
       21.89372       72.91004288        0.62842047
       21.99341       72.10308687        0.65131187
       22.09310       69.64223382        0.64250264
       22.19280       71.67272033        0.69152621
       22.29249       69.66717367        0.63594678
       22.39218       69.09043849        0.64713370
       22.49188       69.07253046        0.64782320
       22.59157       69.08684904        0.65628642
       22.69126       67.67949584        0.68241496
       22.79096       67.61206943        0.61624615
       22.89065       67.93328255        0.60360917
       22.99034       66.68171220        0.61432728
       23.09004       65.92329329        0.63785760
       23.18973       65.89223862        0.63658181
       23.28942       64.59266491        0.62085921
       23.38912       65.08452612        0.62955868
       23.48881       65.81120882        0.63635433
       23.58851       64.80943977        0.63938745
       23.68820       65.20489341        0.67543311
       23.78789       63.99359528        0.59562357
       23.88759       62.91480685        0.59887237
       23.98728       64.94801464        0.62120103
       24.08697       63.19306291        0.60060265
       24.18667       62.67252836        0.64137954
       24.28636       62.43641473        0.60723881
       24.38605       64.51341423        0.63094721
       24.48575       63.17608044        0.62325528
       24.58544       62.43771202        0.63834551
       24.68513       61.67225287        0.63447075
       24.78483       63.23196485        0.59226098
       24.88452       62.61787854        0.58789306
       24.98421       63.11657250        0.61055696
       25.08391       62.54031191        0.62032318
       25.18360       62.16668736        0.63177633
       25.28329       61.22775888        0.60426276
       25.38299       62.52304285        0.60893576
       25.48268       61.71714088        0.60848912
       25.58237       61.20241843        0.63038721
       25.68207       62.38432046        0.62378497
       25.78176       62.14946392        0.58521147
       25.88145       62.22536811        0.60117935
       25.98115       61.90054019        0.60600256
       26.08084       61.66957786        0.61978925
       26.18053       61.61464733        0.63647938
       26.28023       62.08779737        0.60470465
       26.37992       62.45994158        0.60696036
       26.47961       62.86943536        0.62900749
       26.57931       62.73138694        0.65566257
       26.67900       62.18838349        0.61083959
       26.77869       61.60887045        0.60360204
       26.87839       62.62423377        0.60212173
       26.97808       62.89772845        0.59961227
       27.07777       62.35505859        0.64314094
       27.17747       62.09222453        0.61266865
       27.27716       64.21934160        0.60760751
       27.37685       62.51083464        0.62268551
       27.47655       62.56007261        0.61323940
       27.57624       63.05788142        0.64329053
       27.67593       63.61524448        0.63284719
       27.77563       63.36618710        0.60465580
       27.87532       64.75596724        0.60125535
       27.97501       63.18733277        0.60565164
       28.07471       65.00333678        0.65127220
       28.17440       64.04422842        0.61821289
       28.27410       63.04652033        0.61196351
       28.37379       64.11352823        0.63208329
       28.47348       64.80597432        0.63144525
       28.57318       64.96635932        0.68490993
       28.67287       64.62306620        0.60899572
       28.77256       65.75788647        0.60317051
       28.87226       64.95202760        0.61409736
       28.97195       66.72408287        0.62500577
       29.07164       65.76441827        0.67527951
       29.17134       65.75577329        0.61513149
       29.27103       67.06111580        0.63140551
       29.37072       67.26705758        0.65844392
       29.47042       68.20788346        0.65361329
       29.57011       67.73675674        0.68923711
       29.66980       67.42910561        0.62701551
       29.76950       67.49455485        0.62698348
       29.86919       67.23553146        0.61322408
       29.96888       68.29279050        0.64642177
       30.06858       67.68927113        0.66440483
       30.16827       68.43216945        0.63208397
       30.26796       68.87032455        0.63486834
       30.36766       70.43543596        0.65534889
       30.46735       69.73642631        0.65760539
       30.56704       69.13522461        0.68884652
       30.66674       69.82123574        0.64632264
       30.76643       69.52610354        0.62966195
       30.86612       70.95769130        0.64943831
       30.96582       72.78899152        0.66279074
       31.06551       73.30880369        0.69762803
       31.16520       72.01219214        0.64987962
       31.26490       72.15243135        0.64533722
       31.36459       73.27327258        0.65969118
       31.46428       73.08671134        0.68660994
       31.56398       73.69190536        0.69739108
       31.66367       74.07078611        0.65357059
       31.76336       75.34429036        0.65963782
       31.86306       76.39717390        0.65759449
       31.96275       76.04123140        0.67020561
       32.06244       77.94769591        0.70235381
       32.16214       78.38427509        0.66164487
       32.26183       79.61916438        0.68341538
       32.36152       82.14350073        0.71999962
       32.46122       81.40927560        0.72721593
       32.56091       83.44914312        0.75103314
       32.66060       85.12304732        0.72215370
       32.76030       92.29204553        0.73744723
       32.85999       98.83323064        0.77609579
       32.95969      113.19901524        0.84146059
       33.05938      141.63677833        0.96325804
       33.15907      186.74998084        1.05242807
       33.25877      276.15423798        1.34086070
       33.35846      425.49894963        1.71988660
       33.45815      640.47413532        2.27796221
       33.55785      848.71521338        2.72013334
       33.65754     1150.11500471        3.09305148
       33.75723     1400.81777828        3.53866538
       33.85693     1378.11715550        3.51046330
       33.95662     1141.39639704        3.17739990
       34.05631      856.70636069        2.61591703
       34.15601      520.92025819        1.89128087
       34.25570      314.42538667        1.41699392
       34.35539      198.23683574        1.12771746
       34.45509      132.16440072        0.96075035
       34.55478      103.76957684        0.79766679
       34.65447       86.65186475        0.69889943
       34.75417       79.96849518        0.68207628
       34.85386       76.61993292        0.65931195
       34.95355       74.59407802        0.67134810
       35.05325       71.65999077        0.68009870
       35.15294       71.19007028        0.63957445
       35.25263       68.49719112        0.63799611
       35.35233       66.87854177        0.64847034
       35.45202       65.74016007        0.67140270
       35.55171       64.79324076        0.64967432
       35.65141       63.53916521        0.62110366
       35.75110       60.83351721        0.60208756
       35.85079       60.21257764        0.59619023
       35.95049       59.42299815        0.60705975
       36.05018       59.03538339        0.59521212
       36.14987       57.82094601        0.56594052
       36.24957       57.85289560        0.59097552
       36.34926       55.80799555        0.59142532
       36.44895       57.68813290        0.61244704
       36.54865       55.73694302        0.57865887
       36.64834       55.14745921        0.56320156
       36.74803       54.45623878        0.56743651
       36.84773       54.16214408        0.56262922
       36.94742       54.20030184        0.60963057
       37.04711       52.45830310        0.52791162
       37.14681       52.89147767        0.54183003
       37.24650       51.28442903        0.54689118
       37.34619       51.43802701        0.56223250
       37.44589       52.23576923        0.60630272
       37.54558       50.63520537        0.54408636
       37.64528       51.13418336        0.54726674
       37.74497       51.04373335        0.53771355
       37.84466       50.23376508        0.56480382
       37.94436       49.97331282        0.57456505
       38.04405       50.36457367        0.52178259
       38.14374       50.40135816        0.52650202
       38.24344       49.84823196        0.53156986
       38.34313       49.37007657        0.55195792
       38.44282       51.02222494        0.60739786
       38.54252       51.49212301        0.54685899
       38.64221       53.01616455        0.55456718
       38.74190       55.15658084        0.57148606
       38.84160       59.56798191        0.59598966
       38.94129       66.26823977        0.66053770
       39.04098       72.79778252        0.62297886
       39.14068       80.72531829        0.68242096
       39.24037       83.54524340        0.69429866
       39.34006       80.30790261        0.70617223
       39.43976       74.15908005        0.73828200
       39.53945       68.67990282        0.63556536
       39.63914       60.04033515        0.59117193
       39.73884       53.17105165        0.55770609
       39.83853       51.24155461        0.54331554
       39.93822       49.56532806        0.56607391
       40.03792       48.93589548        0.51330494
       40.13761       49.77726865        0.51930168
       40.23730       50.20444756        0.54071605
       40.33700       50.21390122        0.55727464
       40.43669       50.95308625        0.58694459
       40.53638       50.05286466        0.54055390
       40.63608       51.22198252        0.55710774
       40.73577       51.27640594        0.55434782
       40.83546       52.03473485        0.56349786
       40.93516       51.33184365        0.57041504
       41.03485       51.01851958        0.53635551
       41.13454       50.53925144        0.53464092
       41.23424       49.54208172        0.54192113
       41.33393       48.78009870        0.56180332
       41.43362       48.75880305        0.57968438
       41.53332       49.46578053        0.54537841
       41.63301       48.53491072        0.55043861
       41.73270       49.20677375        0.54212983
       41.83240       48.14254279        0.55236487
       41.93209       47.90547879        0.54736768
       42.03179       47.82510727        0.49912016
       42.13148       47.84283586        0.52453502
       42.23117       47.38116178        0.52217307
       42.33087       47.47072936        0.55922500
       42.43056       47.92129990        0.55052889
       42.53025       47.93321984        0.53274845
       42.62995       48.44326648        0.53900389
       42.72964       48.56143370        0.54224726
       42.82933       47.52719193        0.54546777
       42.92903       47.88473874        0.52789146
       43.02872       48.40209980        0.50304563
       43.12841       46.80848859        0.50397118
       43.22811       46.40317110        0.52694120
       43.32780       45.84528127        0.55118483
       43.42749       45.84419347        0.54050124
       43.52719       46.19693295        0.52278378
       43.62688       45.58153917        0.51751268
       43.72657       45.47893701        0.52951337
       43.82627       46.23113961        0.55869748
       43.92596       44.79600008        0.49707348
       44.02565       43.90000476        0.48826950
       44.12535       43.85756511        0.50554429
       44.22504       43.95175333        0.52697121
       44.32473       42.99022756        0.54976781
       44.42443       43.43395755        0.53073441
       44.52412       44.33217657        0.52061357
       44.62381       43.10768281        0.52115841
       44.72351       42.75320846        0.50190419
       44.82320       43.06618274        0.56353654
       44.92289       41.78638893        0.46181886
       45.02259       42.14419601        0.46775557
       45.12228       41.97796239        0.48318647
       45.22197       41.43858626        0.49180868
       45.32167       40.77787749        0.53990503
       45.42136       40.39069474        0.48960417
       45.52105       40.33716862        0.48475261
       45.62075       40.50204002        0.49180855
       45.72044       39.19560513        0.48219230
       45.82013       39.58925150        0.52920563
       45.91983       40.42327323        0.45623386
       46.01952       38.70382222        0.45795156
       46.11921       39.45546872        0.46332064
       46.21891       39.78895597        0.48869608
       46.31860       39.51460685        0.52631379
       46.41829       37.91579773        0.47602507
       46.51799       39.38879175        0.48615298
       46.61768       39.50016568        0.48434888
       46.71738       39.60901229        0.49839077
       46.81707       38.85198109        0.51232391
       46.91676       38.71564994        0.44752189
       47.01646       39.06252187        0.46154523
       47.11615       39.48519579        0.47365025
       47.21584       40.37468032        0.49371036
       47.31554       39.14066190        0.52781605
       47.41523       39.62472446        0.49763620
       47.51492       38.81716186        0.49458657
       47.61462       39.32486990        0.49569590
       47.71431       38.84142054        0.49837075
       47.81400       39.18506299        0.51447478
       47.91370       38.34182809        0.44708717
       48.01339       38.38860059        0.44632681
       48.11308       38.51519953        0.46216371
       48.21278       37.18216747        0.47239723
       48.31247       37.99830498        0.49262329
       48.41216       37.54202396        0.45803967
       48.51186       39.05470411        0.48331123
       48.61155       38.25415192        0.47591234
       48.71124       38.08161407        0.48446095
       48.81094       38.77520842        0.48595434
       48.91063       37.37149782        0.42615167
       49.01032       37.59257764        0.44025007
       49.11002       37.74726788        0.45786002
       49.20971       37.26244499        0.47905103
       49.30940       38.50960241        0.50322925
       49.40910       37.40561885        0.47185297
       49.50879       37.93330963        0.48444551
       49.60848       37.97432756        0.48947821
       49.70818       38.99315272        0.51538897
       49.80787       38.66764449        0.49784827
       49.90756       38.63088486        0.45129820
       50.00726       39.42149630        0.46650327
       50.10695       38.71073091        0.47350706
       50.20664       39.54423118        0.50175494
       50.30634       39.16110407        0.52271476
       50.40603       38.97289914        0.48873777
       50.50572       39.93531864        0.49501313
       50.60542       39.23421079        0.49109575
       50.70511       40.14763390        0.51040622
       50.80480       39.33801279        0.49549553
       50.90450       39.69580481        0.45111022
       51.00419       39.79787585        0.45769381
       51.10388       40.95286041        0.47991698
       51.20358       39.59374262        0.50262677
       51.30327       39.67320373        0.50008963
       51.40297       40.35599393        0.48281803
       51.50266       40.23843956        0.48502153
       51.60235       39.47062594        0.48950669
       51.70205       39.69918066        0.52241902
       51.80174       40.98486782        0.48964223
       51.90143       40.79407654        0.45682154
       52.00113       40.39299594        0.45585323
       52.10082       40.21402128        0.47038919
       52.20051       39.24350350        0.51012720
       52.30021       39.82733241        0.49364874
       52.39990       38.68402406        0.47691843
       52.49959       38.14997145        0.48255526
       52.59929       39.11359215        0.49783405
       52.69898       38.75923506        0.54423372
       52.79867       38.40609267        0.45744072
       52.89837       38.89920971        0.44360023
       52.99806       37.73455897        0.44356722
       53.09775       38.57074048        0.46157854
       53.19745       37.06826336        0.51730254
       53.29714       37.71310323        0.46109717
       53.39683       37.06481802        0.47605019
       53.49653       37.57932181        0.48345812
       53.59622       37.96370827        0.48601180
       53.69591       37.02940342        0.52755172
       53.79561       37.30443499        0.44295695
       53.89530       36.64117499        0.43290788
       53.99499       36.05534960        0.43684643
       54.09469       35.93503880        0.45743690
       54.19438       35.31394588        0.49397773
       54.29407       35.66945795        0.45866966
       54.39377       36.41060045        0.46715878
       54.49346       35.80897547        0.46415175
       54.59315       35.10079284        0.46668921
       54.69285       35.00182139        0.49664368
       54.79254       35.36775121        0.42758246
       54.89223       34.84312873        0.42052272
       54.99193       34.04387317        0.42853148
       55.09162       34.85675091        0.45308690
       55.19131       34.83865719        0.48797685
       55.29101       34.90403152        0.45459593
       55.39070       34.77469519        0.46759452
       55.49039       34.36898774        0.46185971
       55.59009       34.33893360        0.47586774
       55.68978       34.10381641        0.48557696
       55.78947       34.88818168        0.42857320
       55.88917       35.72263903        0.43465392
       55.98886       36.97156284        0.44661455
       56.08856       38.12044202        0.46899981
       56.18825       40.96224796        0.52574665
       56.28794       44.78853802        0.50237866
       56.38764       49.68535403        0.54679006
       56.48733       55.29214283        0.58438971
       56.58702       59.91927827        0.62578669
       56.68672       62.00533035        0.65762439
       56.78641       63.61923745        0.57553704
       56.88610       60.49886902        0.56659896
       56.98580       55.58430803        0.54293252
       57.08549       48.12679411        0.53530442
       57.18518       44.76621207        0.53459391
       57.28488       37.47133910        0.45385812
       57.38457       34.92802009        0.46380931
       57.48426       34.18576198        0.46857497
       57.58396       33.66024121        0.47803255
       57.68365       32.54319878        0.47616787
       57.78334       33.35985050        0.42178668
       57.88304       33.40255529        0.42698144
       57.98273       33.04823028        0.43089878
       58.08242       32.47506268        0.45998493
       58.18212       32.86389352        0.47205112
       58.28181       31.65591240        0.43455530
       58.38150       32.57387411        0.46450608
       58.48120       32.34278489        0.47440629
       58.58089       33.08058586        0.48630160
       58.68058       33.55063603        0.47920790
       58.78028       33.32332356        0.41654999
       58.87997       32.73850097        0.40506763
       58.97966       32.03517708        0.41434875
       59.07936       32.17701716        0.44244235
       59.17905       32.77436123        0.45302528
       59.27874       32.55287903        0.42982491
       59.37844       32.68672232        0.44525932
       59.47813       31.78243837        0.45722593
       59.57782       31.16015248        0.47249368
       59.67752       32.20937067        0.44691264
       59.77721       31.36454033        0.40488724
       59.87690       31.75302296        0.40405953
       59.97660       31.84147746        0.42434213
       60.07629       31.60512751        0.45881183
       60.17598       31.32821058        0.43796249
       60.27568       31.63260019        0.42726764
       60.37537       31.53039290        0.43419490
       60.47506       30.07625700        0.44057463
       60.57476       31.13599182        0.49215598
       60.67445       30.45868895        0.41647654
       60.77415       30.12994080        0.39328129
       60.87384       30.55568148        0.39093271
       60.97353       30.16483268        0.41024701
       61.07323       29.85858616        0.46004824
       61.17292       30.18494454        0.39982188
       61.27261       28.80967060        0.40343434
       61.37231       29.21868470        0.42030941
       61.47200       30.10752130        0.44406191
       61.57169       28.43185969        0.49049283
       61.67139       30.09826236        0.41230825
       61.77108       29.67255201        0.40110094
       61.87077       29.13766315        0.39459590
       61.97047       29.37843132        0.41069669
       62.07016       29.13940803        0.46302452
       62.16985       28.40149977        0.40035414
       62.26955       29.22280130        0.42159277
       62.36924       28.33401630        0.42897767
       62.46893       28.66351379        0.44797197
       62.56863       27.94711259        0.49753719
       62.66832       28.61317475        0.40877024
       62.76801       28.07913044        0.39448735
       62.86771       28.55113759        0.38849267
       62.96740       28.24135798        0.39687202
       63.06709       28.63501025        0.44531975
       63.16679       28.64437037        0.39290292
       63.26648       28.59975236        0.40554415
       63.36617       28.90517488        0.42544424
       63.46587       29.17533884        0.44260638
       63.56556       29.17220609        0.47147303
       63.66525       28.30166556        0.39270604
       63.76495       28.19892118        0.38051877
       63.86464       27.75581483        0.37515049
       63.96433       27.53703398        0.39058058
       64.06403       28.23300390        0.42221006
       64.16372       28.22591223        0.39243605
       64.26341       28.85418031        0.41614242
       64.36311       28.71095361        0.42361616
       64.46280       28.66590800        0.44690263
       64.56249       29.37406862        0.45942650
       64.66219       29.01952362        0.39889276
       64.76188       29.24703875        0.39451274
       64.86157       28.87755858        0.38992206
       64.96127       28.47041461        0.40732084
       65.06096       30.22010556        0.45588504
       65.16065       30.51707578        0.41554538
       65.26035       29.20923974        0.41467339
       65.36004       30.09742208        0.43806848
       65.45974       31.14471750        0.45992552
       65.55943       31.03015089        0.47957832
       65.65912       31.46507945        0.41819320
       65.75882       31.75818338        0.41623373
       65.85851       32.91784698        0.42425008
       65.95820       34.29528366        0.45631720
       66.05790       34.61929293        0.47401246
       66.15759       35.61607934        0.45676273
       66.25728       38.08396913        0.48627551
       66.35698       39.64824150        0.51541108
       66.45667       44.38040383        0.57885621
       66.55636       47.83362124        0.59865605
       66.65606       55.15259597        0.57183495
       66.75575       74.01559589        0.65410624
       66.85544      101.10631008        0.76279714
       66.95514      149.99904166        0.97494855
       67.05483      220.65713809        1.20516023
       67.15452      328.81703296        1.42639916
       67.25422      470.07320947        1.83061430
       67.35391      594.47359288        2.19928299
       67.45360      698.96010416        2.57161512
       67.55330      772.82618237        2.64220575
       67.65299      843.58087974        2.52019967
       67.75268      871.27580530        2.54055023
       67.85238      844.28297186        2.51499012
       67.95207      757.78388809        2.50879370
       68.05176      643.82444932        2.14598987
       68.15146      465.51213525        1.74562323
       68.25115      314.65192795        1.48204960
       68.35084      212.04122270        1.25279986
       68.45054      157.16475285        1.18116540
       68.55023      111.64492178        0.84988283
       68.64992       77.81128914        0.65377554
       68.74962       56.86018349        0.56135796
       68.84931       45.93067795        0.51022452
       68.94900       41.88123435        0.55026443
       69.04870       36.92251456        0.43409591
       69.14839       36.10461522        0.44503594
       69.24808       34.93124644        0.47195627
       69.34778       33.54245332        0.47668286
       69.44747       32.30461848        0.54028851
       69.54716       30.97220396        0.41217380
       69.64686       30.90481296        0.40519007
       69.74655       29.79065523        0.39980266
       69.84625       29.17583438        0.40491396
       69.94594       28.91882920        0.45497189
       70.04563       28.37285892        0.37399095
       70.14533       28.73479847        0.39283218
       70.24502       28.86020121        0.42045625
       70.34471       29.23083626        0.44730173
       70.44441       30.13907866        0.53355363
       70.54410       29.73418505        0.41431644
       70.64379       30.87220553        0.41961748
       70.74349       33.59161012        0.44441471
       70.84318       34.99207536        0.47514210
       70.94287       34.39903980        0.51997365
       71.04257       36.46195383        0.44204195
       71.14226       37.03290507        0.46153900
       71.24195       36.52790875        0.48134126
       71.34165       36.63424635        0.50889272
       71.44134       33.52209259        0.54152248
       71.54103       32.99244320        0.43713137
       71.64073       31.65756322        0.41994211
       71.74042       29.89813476        0.40353381
       71.84011       28.30454811        0.40703617
       71.93981       27.68987784        0.43780376
       72.03950       26.28982744        0.35959295
       72.13919       26.34368683        0.37505004
       72.23889       25.71450094        0.38500611
       72.33858       25.01823322        0.42309374
       72.43827       24.66625777        0.46177467
       72.53797       25.99830553        0.38629881
       72.63766       24.68619368        0.36928605
       72.73735       25.55723249        0.36642955
       72.83705       24.86663545        0.38066360
       72.93674       25.65807710        0.41035926
       73.03643       24.62526679        0.34749158
       73.13613       24.57360912        0.36449468
       73.23582       24.65591113        0.38490921
       73.33551       25.44197538        0.43327773
       73.43521       25.45508705        0.47066837
       73.53490       25.67766871        0.38113085
       73.63459       25.49765293        0.37349522
       73.73429       25.40246298        0.36990093
       73.83398       25.48281240        0.39222093
       73.93367       25.18240053        0.40982594
       74.03337       26.16521008        0.36811848
       74.13306       25.88098975        0.38562088
       74.23275       26.06630420        0.40463570
       74.33245       25.69412172        0.44152997
       74.43214       24.79499270        0.44795197
       74.53184       25.45205696        0.38526405
       74.63153       24.64335204        0.37610090
       74.73122       24.94419072        0.37561114
       74.83092       25.15585602        0.39879432
       74.93061       24.30413279        0.39683961
       75.03030       24.56904949        0.35985171
       75.13000       24.65555320        0.37281893
       75.22969       23.64647922        0.38042953
       75.32938       24.09521577        0.42071323
       75.42908       23.50096727        0.42073354
       75.52877       23.59509968        0.36563620
       75.62846       24.09201127        0.36703048
       75.72816       24.17573965        0.36784575
       75.82785       23.72789198        0.39476773
       75.92754       23.70129289        0.37306750
       76.02724       23.90024082        0.34951584
       76.12693       22.64944689        0.35383425
       76.22662       23.49959397        0.38034958
       76.32632       22.37800271        0.41900121
       76.42601       23.06144865        0.39810441
       76.52570       22.79812252        0.36397791
       76.62540       22.38202421        0.36024183
       76.72509       23.44195726        0.36562720
       76.82478       23.37984115        0.42134947
       76.92448       23.10584880        0.33285745
       77.02417       23.19035057        0.34489236
       77.12386       22.49951371        0.35609734
       77.22356       22.70237390        0.37944622
       77.32325       21.74455139        0.45399508
       77.42294       22.58366597        0.37042887
       77.52264       23.22126661        0.36867784
       77.62233       22.58482005        0.36173062
       77.72202       23.14905125        0.36541856
       77.82172       23.03490871        0.42584555
       77.92141       22.47281676        0.32241366
       78.02110       22.69045551        0.34878182
       78.12080       22.31113040        0.36681324
       78.22049       22.37365371        0.39067008
       78.32018       22.89216908        0.46030201
       78.41988       21.99393973        0.35656015
       78.51957       22.23726342        0.36940113
       78.61926       21.79438480        0.36318075
       78.71896       22.56758472        0.37030895
       78.81865       22.30010440        0.41013246
       78.91834       22.43735732        0.31722328
       79.01804       22.61039853        0.35062426
       79.11773       22.79029264        0.36886649
       79.21743       23.12134680        0.39718283
       79.31712       21.43742659        0.43048361
       79.41681       22.50337169        0.35573993
       79.51651       21.62523488        0.35484635
       79.61620       22.02994774        0.35848664
       79.71589       21.58505908        0.36753378
       79.81559       21.76846744        0.39003052
       79.91528       22.32632771        0.33567475
       80.01497       23.07568218        0.35561306
       80.11467       22.09852190        0.36240960
       80.21436       22.98580482        0.39446755
       80.31405       22.25637820        0.46075492
       80.41375       22.70945965        0.35616815
       80.51344       22.23976694        0.35075953
       80.61313       22.61901301        0.36328228
       80.71283       22.25494839        0.37446504
       80.81252       21.67535500        0.41638537
       80.91221       22.22289296        0.31461561
       81.01191       22.12007468        0.33643684
       81.11160       21.84219741        0.36011329
       81.21129       21.57381598        0.38647819
       81.31099       22.23642164        0.43705849
       81.41068       21.91701653        0.33788249
       81.51037       22.24037308        0.34917058
       81.61007       22.16927425        0.36822815
       81.70976       21.79672523        0.37840850
       81.80945       21.11509274        0.39605886
       81.90915       22.02110127        0.30817414
       82.00884       22.54424573        0.33376159
       82.10853       21.79946360        0.36562660
       82.20823       21.00101281        0.39690899
       82.30792       21.92285179        0.42410371
       82.40761       21.71594048        0.34493895
       82.50731       21.70923497        0.34892780
       82.60700       22.35907260        0.37927836
       82.70669       21.97175356        0.40939043
       82.80639       21.68988936        0.38762972
       82.90608       22.47833914        0.31984275
       83.00577       21.99025035        0.33458802
       83.10547       22.03097902        0.39327966
       83.20516       22.97375126        0.45004384
       83.30485       22.03992304        0.42111699
       83.40455       22.73191119        0.35694526
       83.50424       23.05267053        0.34893199
       83.60393       24.16613875        0.39344856
       83.70363       23.70319537        0.43793856
       83.80332       24.27761443        0.38788284
       83.90302       24.45635828        0.32542086
       84.00271       25.68362806        0.34718814
       84.10240       25.80447765        0.42128987
       84.20210       25.94406429        0.51314105
       84.30179       27.42903217        0.42925144
       84.40148       26.15496665        0.36805955
       84.50118       26.26875940        0.36225508
       84.60087       26.12431150        0.40714069
       84.70056       26.74838304        0.53589508
       84.80026       25.59250997        0.36614219
       84.89995       24.73120293        0.32483471
       84.99964       24.38360488        0.33571780
       85.09934       23.60106365        0.38915061
       85.19903       22.17501277        0.64572096
       85.29872       22.56536427        0.34273310
       85.39842       22.40059490        0.34706126
       85.49811       21.50771166        0.33032719
       85.59780       21.02084809        0.36578186
       85.69750       20.58470145        0.65103010
       85.79719       22.12600807        0.32246133
       85.89688       21.99255251        0.31397555
       85.99658       21.14551642        0.31509913
       86.09627       21.60757581        0.36506514
       86.19596       22.59080513        0.72046987
       86.29566       21.13035819        0.32787925
       86.39535       20.86164535        0.32921779
       86.49504       20.90583417        0.32435814
       86.59474       21.03650239        0.35175192
       86.69443       19.41731968        0.70778762
       86.79412       21.72301046        0.31175411
       86.89382       21.62758569        0.30297786
       86.99351       21.62123940        0.31453103
       87.09320       20.87274400        0.34265466
       87.19290       20.42487496        0.80405779
       87.29259       20.85880069        0.32716588
       87.39228       21.11393287        0.33716173
       87.49198       20.97137980        0.32921787
       87.59167       21.08498848        0.33411119
       87.69136       20.84484080        0.99364126
       87.79106       21.16170440        0.31049483
       87.89075       21.22638292        0.30847014
       87.99044       20.41320818        0.31306067
       88.09014       20.94267851        0.33680906
       88.18983       20.47962821        1.77241723
       88.28952       20.94371410        0.34310010
       88.38922       21.56469672        0.35156085
       88.48891       21.29012074        0.33354958
       88.58861       20.89296963        0.31892950
       88.68830       25.61874687        2.77002625
       88.78799       20.93263350        0.30800508
       88.88769       20.74191615        0.29794141
       88.98738       21.32179555        0.31536214
       89.08707       21.72410083        0.32948537
       89.18677       18.52952017        2.47788629
       89.28646       20.93997740        0.32769082
       89.38615       21.15488058        0.33056793
       89.48585       21.42791616        0.32642053
       89.58554       20.65691877        0.31263511
       89.68523       22.56475754        2.64195801
       89.78493       20.58728801        0.30143853
       89.88462       21.18834829        0.30318609
       89.98431       20.99118998        0.31143781
       90.08401       21.56645350        0.32475936
       90.18370       25.07307342        2.90073152
       90.28339       21.40418560        0.32999155
       90.38309       20.80976995        0.33037068
       90.48278       20.79312863        0.32284133
       90.58247       20.71943196        0.31707031
       90.68217       26.95538229        2.85894455
       90.78186       21.73135014        0.31503506
       90.88155       22.30904631        0.31127494
       90.98125       21.68224246        0.31537085
       91.08094       21.78405800        0.32623183
       91.18063       25.27232391        2.80338468
       91.28033       22.14437934        0.33800882
       91.38002       21.65395528        0.34138645
       91.47971       23.06971274        0.34395631
       91.57941       23.72103816        0.34233040
       91.67910       25.03344469        2.66489163
       91.77879       24.13128172        0.33073137
       91.87849       23.89318537        0.32226309
       91.97818       25.42169894        0.34526484
       92.07787       26.33755673        0.36460546
       92.17757       24.82218468        2.68703028
       92.27726       27.85086754        0.38624649
       92.37695       31.80777061        0.42647500
       92.47665       36.86691352        0.44158513
       92.57634       42.77512014        0.45819838
       92.67603       48.65606854        3.19695283
       92.77573       52.11223699        0.48800622
       92.87542       65.44541978        0.53678986
       92.97511       90.91247862        0.66182980
       93.07481      126.21662617        0.89520655
       93.17450      137.22191814        1.76443696
       93.27420      174.18880415        0.98988431
       93.37389      223.10524218        1.10023368
       93.47358      265.80025894        1.21727958
       93.57328      296.82765235        1.49760677
       93.67297      306.54492615        2.05584509
       93.77266      324.21302260        1.31394265
       93.87236      340.54655023        1.28196418
       93.97205      362.47413960        1.39822088
       94.07174      380.01827657        1.87920885
       94.17144      379.95643243        2.14699169
       94.27113      379.03170355        1.58580571
       94.37082      372.37429772        1.52126668
       94.47052      356.56083075        1.42549004
       94.57021      324.05151442        1.78176232
       94.66990      311.96080396        1.76002757
       94.76960      269.30345623        1.25516830
       94.86929      210.01445021        1.00686397
       94.96898      145.84283249        0.84087057
       95.06868      105.73153483        0.81489568
       95.16837       91.07513261        1.02931859
       95.26806       77.45067932        0.73105881
       95.36776       64.16702003        0.60128950
       95.46745       53.39255560        0.52553532
       95.56714       44.02442091        0.54612532
       95.66684       41.21466448        0.59753542
       95.76653       36.41612802        0.46632223
       95.86622       31.41307744        0.36832823
       95.96592       28.99590831        0.36467474
       96.06561       29.02208673        0.46741761
       96.16530       28.49534790        0.49157600
       96.26500       28.59690028        0.44259245
       96.36469       28.91803145        0.39696598
       96.46438       31.56438449        0.40371006
       96.56408       32.48196423        0.51155576
       96.66377       33.55570727        0.50514835
       96.76346       32.89991588        0.44555096
       96.86316       33.96430338        0.39070878
       96.96285       35.22031009        0.41055308
       97.06254       35.07916813        0.55216947
       97.16224       35.54147225        0.53193487
       97.26193       35.01134493        0.49368787
       97.36162       35.52188720        0.46541258
       97.46132       36.56190821        0.43872588
       97.56101       36.82775233        0.55609058
       97.66071       34.55257474        0.48174363
       97.76040       34.80581145        0.43952657
       97.86009       33.84349512        0.39056112
       97.95979       31.42716639        0.38230337
       98.05948       29.31461893        0.51614303
       98.15917       29.40801015        0.46168444
       98.25887       27.07938017        0.42549247
       98.35856       25.15842752        0.38534933
       98.45825       24.21643498        0.35142862
       98.55795       24.09601012        0.45737589
       98.65764       23.30949604        0.38541157
       98.75733       23.06563513        0.35645592
       98.85703       21.77732071        0.32277494
       98.95672       22.38511388        0.32849893
       99.05641       21.02473770        0.44380927
       99.15611       22.65666032        0.39532345
       99.25580       21.78964115        0.37383592
       99.35549       21.95774079        0.35659178
       99.45519       21.58953924        0.32918457
       99.55488       21.63392823        0.43984379
       99.65457       21.35774118        0.35992564
       99.75427       21.28360194        0.33645518
       99.85396       21.85026522        0.32847833
       99.95365       22.10793239        0.32387500
      100.05335       21.90750092        0.45695532
      100.15304       21.48120501        0.37998882
      100.25273       20.83037890        0.36977293
      100.35243       21.79743261        0.37554501
      100.45212       22.04557606        0.34450512
      100.55181       21.00663428        0.44255029
      100.65151       21.17818745        0.36339275
      100.75120       21.79020297        0.34322471
      100.85089       21.47218849        0.32486982
      100.95059       21.34460841        0.31462580
      101.05028       21.16431226        0.44691188
      101.14997       21.12364442        0.36786772
      101.24967       20.68449275        0.35865847
      101.34936       20.79589701        0.36118966
      101.44905       20.88799405        0.34333055
      101.54875       21.62904997        0.43909655
      101.64844       20.65975076        0.34908811
      101.74813       20.79372344        0.32845492
      101.84783       21.01016232        0.32002286
      101.94752       20.13587439        0.32997804
      102.04721       20.47074869        0.39985236
      102.14691       20.25544455        0.35802567
      102.24660       20.68382853        0.35884989
      102.34630       20.55425360        0.36041868
      102.44599       20.93007242        0.36902306
      102.54568       21.42521828        0.39086793
      102.64538       20.54341808        0.34118076
      102.74507       20.45717784        0.32336255
      102.84476       20.48053053        0.31693385
      102.94446       20.40536463        0.35878974
      103.04415       20.04835026        0.37983654
      103.14384       20.11289783        0.35652082
      103.24354       20.39454366        0.35405654
      103.34323       20.38683671        0.35047675
      103.44292       20.46033366        0.37992234
      103.54262       20.28114835        0.36713201
      103.64231       20.00963714        0.33105882
      103.74200       19.48058737        0.31098718
      103.84170       19.89126196        0.30813909
      103.94139       19.92975974        0.37460665
      104.04108       20.04854975        0.36388882
      104.14078       20.14714450        0.35334393
      104.24047       20.16937127        0.35262507
      104.34016       19.78255232        0.35069371
      104.43986       19.61584384        0.39768277
      104.53955       19.75421332        0.35981214
      104.63924       19.99304917        0.33945587
      104.73894       20.17596219        0.32774234
      104.83863       20.53038675        0.32093950
      104.93832       19.72822944        0.38090098
      105.03802       19.87033500        0.35881708
      105.13771       19.84896601        0.34504340
      105.23740       19.90074882        0.34417380
      105.33710       19.75387943        0.34365121
      105.43679       19.71897339        0.39971006
      105.53648       19.66926490        0.35913631
      105.63618       19.69586963        0.33056181
      105.73587       19.97407376        0.31847227
      105.83556       19.90915614        0.30913936
      105.93526       20.14458617        0.39334539
      106.03495       20.40413971        0.35852086
      106.13464       19.38584850        0.33720462
      106.23434       19.47706858        0.33997816
      106.33403       19.81784641        0.34667127
      106.43372       20.20327386        0.41868447
      106.53342       20.06272935        0.36346112
      106.63311       20.64315428        0.33526568
      106.73280       20.06321416        0.31386929
      106.83250       20.02212109        0.30813402
      106.93219       19.92226530        0.39775539
      107.03189       19.36841962        0.34749997
      107.13158       19.53709431        0.33804742
      107.23127       19.69647708        0.34574608
      107.33097       20.31197249        0.35131604
      107.43066       19.85306127        0.41840976
      107.53035       20.07049799        0.36160419
      107.63005       20.04647040        0.32883476
      107.72974       20.04016017        0.31500853
      107.82943       19.95322322        0.30988861
      107.92913       19.03015351        0.39995794
      108.02882       19.72984960        0.35707180
      108.12851       20.40364226        0.34715624
      108.22821       20.32134394        0.34155219
      108.32790       20.53881986        0.33896984
      108.42759       20.98032118        0.43444022
      108.52729       20.07959582        0.36030334
      108.62698       20.18993157        0.32661927
      108.72667       20.06951890        0.31211959
      108.82637       20.91605536        0.32651176
      108.92606       21.17548320        0.41823127
      109.02575       20.73912579        0.36206952
      109.12545       21.61111824        0.36000809
      109.22514       22.20211097        0.36398561
      109.32483       22.38300365        0.39744637
      109.42453       23.46119091        0.42905971
      109.52422       24.68780578        0.39715176
      109.62391       24.25407694        0.37394676
      109.72361       24.99006583        0.36351307
      109.82330       26.02923869        0.34912500
      109.92299       27.89780929        0.47023312
      110.02269       27.94220821        0.41034502
      110.12238       28.54796002        0.41177836
      110.22207       27.88733264        0.40342198
      110.32177       27.89293037        0.41129031
      110.42146       28.27476441        0.50189173
      110.52115       28.40270791        0.42799706
      110.62085       29.81817998        0.41513542
      110.72054       29.56835752        0.38811809
      110.82023       29.81185741        0.40112428
      110.91993       30.03873511        0.46781680
      111.01962       29.56796309        0.42878753
      111.11931       29.04991499        0.42695638
      111.21901       28.07061635        0.41122014
      111.31870       28.10030822        0.44561031
      111.41839       27.54939815        0.45929136
      111.51809       27.46322404        0.41835195
      111.61778       26.51695543        0.38698411
      111.71748       24.69437926        0.34599542
      111.81717       23.74974569        0.36718567
      111.91686       22.40556370        0.37475005
      112.01656       22.17601762        0.36399803
      112.11625       21.55233016        0.36101778
      112.21594       20.40307803        0.35045936
      112.31564       20.78025369        0.39206395
      112.41533       20.91715082        0.38624382
      112.51502       21.21407396        0.35760508
      112.61472       20.61710455        0.33587332
      112.71441       20.04825013        0.31185859
      112.81410       19.06604256        0.33990101
      112.91380       19.80960765        0.35257641
      113.01349       19.89998507        0.34665246
      113.11318       19.88303021        0.34676026
      113.21288       19.67975355        0.34441275
      113.31257       19.33202448        0.37718246
      113.41226       19.46010965        0.35890711
      113.51196       19.27294372        0.33580304
      113.61165       19.71800659        0.32783543
      113.71134       19.32232285        0.30904250
      113.81104       19.80247218        0.35851807
      113.91073       19.66270497        0.34827261
      114.01042       19.84172787        0.34691833
      114.11012       20.00682450        0.34779025
      114.20981       20.06749614        0.34980806
      114.30950       19.88917335        0.39459887
      114.40920       19.39637987        0.35968360
      114.50889       19.40118130        0.33673940
      114.60858       19.02821548        0.32338580
      114.70828       20.01510115        0.32052546
      114.80797       19.13481090        0.35712727
      114.90766       20.23383529        0.34572513
      115.00736       19.16226276        0.33410186
      115.10705       19.67223972        0.33963099
      115.20674       19.85829764        0.34657482
      115.30644       19.51098295        0.39348357
      115.40613       19.61514876        0.35782232
      115.50582       20.15350120        0.34319698
      115.60552       20.66928793        0.33655773
      115.70521       20.22395631        0.32044619
      115.80490       20.45838813        0.37504045
      115.90460       20.23180022        0.33735830
      116.00429       20.24921397        0.34147657
      116.10398       19.51800179        0.33735317
      116.20368       19.99382825        0.34904933
      116.30337       20.33552359        0.42053111
      116.40307       20.76224663        0.37149720
      116.50276       20.48189144        0.34950372
      116.60245       20.75464575        0.33824533
      116.70215       20.29161817        0.32222985
      116.80184       20.17439448        0.38114547
      116.90153       20.51686512        0.34600573
      117.00123       20.60817040        0.34370338
      117.10092       20.51466728        0.35192160
      117.20061       20.72015615        0.35907865
      117.30031       20.81289884        0.43271773
      117.40000       21.19446917        0.36581972
      117.49969       21.39206192        0.34886449
      117.59939       20.90076114        0.32900954
      117.69908       20.90955743        0.31856621
      117.79877       21.59523270        0.39705450
      117.89847       21.20358082        0.34158907
      117.99816       21.59435066        0.34977113
      118.09785       22.98498588        0.36972449
      118.19755       23.36293740        0.38942572
      118.29724       23.86533153        0.42901841
      118.39693       25.16680742        0.40197760
      118.49663       26.31438144        0.38668041
      118.59632       28.23447310        0.38561469
      118.69601       30.50914445        0.41910228
      118.79571       33.09557722        0.47245286
      118.89540       35.30360996        0.45631453
      118.99509       39.62410856        0.48391717
      119.09479       42.70505430        0.50654048
      119.19448       46.46144304        0.57580281
      119.29417       50.62498418        0.62547295
      119.39387       54.79307586        0.59937193
      119.49356       64.49253614        0.61274410
      119.59325       74.23754404        0.64086199
      119.69295       90.27977717        0.74996206
      119.79264      105.20422255        0.82233817
      119.89233      124.58607637        0.87043711
      119.99203      143.63897592        0.91588176
      120.09172      162.55877441        0.99764092
      120.19141      175.64325379        1.16632727
      120.29111      187.80995394        1.19426760
      120.39080      202.57615775        1.18820770
      120.49049      215.27839997        1.14535933
      120.59019      226.04844375        1.14264517
      120.68988      235.83005522        1.25999178
      120.78957      239.69185742        1.24117950
      120.88927      245.67060760        1.23701394
      120.98896      254.93256049        1.24905923
      121.08866      258.03826810        1.26266948
      121.18835      262.42771583        1.46416674
      121.28804      268.26490393        1.44445325
      121.38774      273.69043201        1.38524681
      121.48743      279.33631471        1.32632781
      121.58712      282.05394850        1.27119365
      121.68682      279.93323905        1.39422017
      121.78651      280.28349871        1.33132337
      121.88620      277.29633220        1.30708780
      121.98590      270.22926418        1.29660934
      122.08559      258.64156465        1.29042164
      122.18528      252.85094021        1.48812273
      122.28498      243.95485948        1.37035893
      122.38467      230.47325648        1.27092213
      122.48436      210.78778470        1.14489538
      122.58406      186.62551771        1.01454066
      122.68375      162.16576599        1.06583013
      122.78344      142.75478643        0.93534941
      122.88314      122.49827724        0.85694256
      122.98283      102.47542203        0.79755418
      123.08252       88.51031205        0.73658918
      123.18222       77.72790731        0.80209259
      123.28191       68.95249471        0.68335363
      123.38160       62.34099762        0.62647666
      123.48130       56.35974883        0.57267394
      123.58099       49.59630204        0.50108024
      123.68068       44.56048458        0.54125706
      123.78038       41.80405199        0.47309933
      123.88007       37.67480831        0.44058901
      123.97976       34.01235336        0.42509037
      124.07946       30.45878974        0.39737198
      124.17915       27.75372166        0.42686641
      124.27884       26.03544304        0.37002464
      124.37854       23.85279454        0.33299218
      124.47823       22.79038452        0.31849393
      124.57792       22.26105508        0.33538127
