        5.04553       35.49691158        0.94166571
        5.14523       34.44400425        0.88733759
        5.24492       34.56389133        0.87665682
        5.34461       35.48573653        0.81790786
        5.44431       35.55772896        0.89551479
        5.54400       34.41084217        0.73410797
        5.64369       35.93565289        0.75414758
        5.74339       34.59794261        0.66304214
        5.84308       34.90981435        0.67413844
        5.94277       34.16792974        0.66510894
        6.04247       35.83222396        0.66091955
        6.14216       34.82725756        0.59970351
        6.24185       35.05933673        0.62008115
        6.34155       35.40889056        0.59459812
        6.44124       34.96191687        0.62280339
        6.54093       34.54884301        0.58697553
        6.64063       34.76715033        0.55814701
        6.74032       34.98146048        0.55990063
        6.84001       34.05931153        0.54922319
        6.93971       34.15059506        0.55473331
        7.03940       34.98635717        0.52314062
        7.13909       33.84224591        0.51210138
        7.23879       34.65836695        0.51100099
        7.33848       34.41774006        0.51705249
        7.43817       35.03047473        0.51069297
        7.53787       34.91643579        0.50325526
        7.63756       35.05774018        0.48094496
        7.73725       34.94424376        0.49922407
        7.83695       35.38768401        0.48606439
        7.93664       35.72407482        0.50950804
        8.03633       35.21537895        0.45542823
        8.13603       35.98285896        0.45506365
        8.23572       35.89023569        0.46340473
        8.33541       35.16340842        0.45406002
        8.43511       35.00499868        0.47932699
        8.53480       34.97182372        0.44392424
        8.63449       35.10006081        0.44063895
        8.73419       36.03236438        0.43596518
        8.83388       36.01107633        0.43829182
        8.93357       35.54929972        0.43446006
        9.03327       36.83223728        0.43081062
        9.13296       36.37362652        0.42586609
        9.23265       35.85607394        0.42801880
        9.33235       36.08403521        0.44200941
        9.43204       36.62463506        0.44362956
        9.53174       35.68381440        0.42070760
        9.63143       36.09776867        0.43736901
        9.73112       36.46325454        0.43966755
        9.83082       37.14832759        0.46310710
        9.93051       35.58470964        0.44636562
       10.03020       36.04269870        0.43428398
       10.12990       37.39007879        0.43187022
       10.22959       36.82517167        0.44593949
       10.32928       37.23681223        0.46721999
       10.42898       37.82998534        0.46491483
       10.52867       37.46854761        0.44747961
       10.62836       37.66824518        0.44858714
       10.72806       37.15588100        0.45101744
       10.82775       38.39696116        0.45747331
       10.92744       37.20232648        0.45687890
       11.02714       37.68335890        0.43925848
       11.12683       37.74879140        0.45443013
       11.22652       37.80938542        0.46012773
       11.32622       38.37057207        0.47582179
       11.42591       38.48601614        0.45984193
       11.52560       38.75782529        0.45629661
       11.62530       38.19663017        0.45695927
       11.72499       38.40505260        0.46651026
       11.82468       39.79901033        0.48787924
       11.92438       39.05647232        0.45915930
       12.02407       39.59566914        0.45718345
       12.12376       40.43097587        0.46484153
       12.22346       40.21009365        0.49186590
       12.32315       39.73984580        0.49369964
       12.42284       40.14412498        0.47314865
       12.52254       40.34683953        0.47059539
       12.62223       40.91071754        0.48705888
       12.72192       41.78234924        0.47829634
       12.82162       41.30976625        0.51371080
       12.92131       40.90049642        0.46923335
       13.02100       41.86056933        0.46923177
       13.12070       42.37026336        0.47991408
       13.22039       43.02874955        0.49785261
       13.32008       42.48320134        0.51344222
       13.41978       42.63676786        0.48898676
       13.51947       44.24039061        0.50751216
       13.61916       44.29999835        0.49033408
       13.71886       44.36765888        0.51459666
       13.81855       45.90396592        0.53149678
       13.91824       46.49715369        0.50349586
       14.01794       46.15706722        0.49068941
       14.11763       46.22370702        0.50855121
       14.21733       48.15701825        0.52185155
       14.31702       48.06048671        0.54753487
       14.41671       48.96777262        0.53614017
       14.51641       50.94365379        0.53201642
       14.61610       52.08885810        0.54074397
       14.71579       52.69854605        0.55389750
       14.81549       55.15069516        0.59465562
       14.91518       55.84236353        0.54718422
       15.01487       60.24151657        0.57914506
       15.11457       65.69737001        0.61271678
       15.21426       72.08026627        0.66209939
       15.31395       78.35948485        0.70937848
       15.41365       85.52116369        0.71815005
       15.51334      105.39426541        0.77635833
       15.61303      121.69879099        0.86187605
       15.71273      146.21560345        0.93265997
       15.81242      169.44894860        1.05774364
       15.91211      184.95077701        1.06927344
       16.01181      228.30910295        1.15157018
       16.11150      278.50638474        1.32284772
       16.21119      347.43469365        1.53985635
       16.31089      431.34945735        1.74495095
       16.41058      509.33638242        1.88311837
       16.51027      638.31533104        2.19378104
       16.60997      837.16912350        2.50351805
       16.70966     1049.95474262        2.96736171
       16.80935     1191.57222329        3.26535816
       16.90905     1383.47419983        3.50461315
       17.00874     1247.43244798        3.12905210
       17.10843     1006.77046863        2.87762585
       17.20813      774.88418763        2.45277552
       17.30782      596.06199961        2.10539885
       17.40751      410.69682867        1.69015613
       17.50721      307.04737920        1.38867693
       17.60690      221.04433953        1.19734218
       17.70659      167.98613585        1.03775294
       17.80629      126.27831418        0.90279786
       17.90598       96.41268153        0.73358398
       18.00567       79.76963306        0.67700334
       18.10537       69.75156987        0.61462788
       18.20506       63.83972041        0.64334591
       18.30475       60.80996198        0.59857676
       18.40445       57.03366910        0.56363798
       18.50414       56.12098259        0.57732819
       18.60384       53.95799444        0.55680974
       18.70353       52.22157588        0.57927047
       18.80322       50.94290765        0.53813520
       18.90292       49.71873300        0.52617209
       19.00261       49.52030854        0.50914531
       19.10230       47.53408053        0.53143102
       19.20200       46.34871663        0.53687364
       19.30169       45.03446243        0.51007685
       19.40138       45.27597104        0.50679167
       19.50108       44.59507192        0.51435087
       19.60077       43.66264004        0.50377377
       19.70046       44.19861603        0.53127494
       19.80016       42.52511362        0.49329816
       19.89985       42.93275662        0.48120985
       19.99954       42.65085141        0.48438555
       20.09924       42.61082745        0.49008802
       20.19893       40.93325667        0.51332800
       20.29862       41.44935312        0.48935193
       20.39832       40.57341842        0.49954695
       20.49801       40.50953802        0.48961616
       20.59770       39.61220612        0.49395535
       20.69740       38.88216448        0.50665845
       20.79709       39.17785412        0.48434420
       20.89678       36.80336250        0.45735800
       20.99648       37.88761180        0.47175736
       21.09617       37.91257511        0.49271499
       21.19586       37.12478906        0.48726080
       21.29556       36.39817520        0.47138706
       21.39525       35.69365502        0.46743865
       21.49494       36.06172765        0.46166766
       21.59464       36.54780142        0.47491301
       21.69433       35.45911174        0.48696017
       21.79402       35.25304961        0.44324348
       21.89372       35.42365432        0.43530797
       21.99341       35.33553180        0.45318581
       22.09310       34.42904736        0.44915814
       22.19280       34.14824896        0.47435563
       22.29249       34.79846654        0.44690665
       22.39218       33.96161657        0.45111130
       22.49188       34.32751201        0.45411574
       22.59157       34.30718684        0.45986004
       22.69126       33.94289491        0.48064694
       22.79096       33.32521841        0.43023817
       22.89065       33.20256645        0.41960602
       22.99034       34.43144732        0.43917867
       23.09004       34.36112429        0.45821223
       23.18973       34.55192437        0.45869493
       23.28943       34.78764576        0.45352761
       23.38912       34.38830438        0.45541875
       23.48881       34.88294123        0.46104477
       23.58851       33.93680289        0.46043896
       23.68820       34.09239923        0.48600590
       23.78789       33.78824735        0.43076338
       23.88759       33.66124052        0.43607536
       23.98728       33.22659168        0.44208552
       24.08697       33.30958858        0.43402856
       24.18667       32.71433470        0.46123149
       24.28636       33.01838121        0.43958421
       24.38605       33.11847068        0.44982827
       24.48575       33.16959567        0.44949988
       24.58544       33.03524737        0.46221673
       24.68513       32.48499724        0.45840778
       24.78483       32.30200087        0.42125471
       24.88452       32.02349369        0.41840701
       24.98421       32.28751707        0.43457637
       25.08391       31.74062030        0.43978663
       25.18360       32.17923079        0.45242142
       25.28329       31.85765181        0.43389539
       25.38299       32.68092580        0.43821079
       25.48268       31.81794022        0.43487513
       25.58237       32.28686883        0.45583127
       25.68207       32.48272497        0.44802529
       25.78176       31.88993882        0.41722141
       25.88145       32.40105377        0.43180273
       25.98115       32.46386765        0.43686659
       26.08084       32.31550823        0.44662459
       26.18053       31.27686610        0.45132793
       26.28023       31.87954523        0.43126592
       26.37992       31.64238021        0.42992253
       26.47961       32.18546447        0.44789218
       26.57931       32.66735932        0.47093291
       26.67900       31.76563840        0.43449254
       26.77869       31.25581667        0.42788894
       26.87839       32.31931338        0.43051257
       26.97808       31.56651639        0.42268281
       27.07777       31.31848972        0.45357104
       27.17747       32.37393750        0.44035250
       27.27716       32.59930245        0.43074174
       27.37685       32.20567468        0.44483532
       27.47655       32.15357712        0.43754923
       27.57624       32.04398353        0.45634090
       27.67593       32.10563957        0.44734395
       27.77563       32.29250487        0.42953886
       27.87532       32.38686832        0.42301694
       27.97502       32.77357571        0.43411260
       28.07471       32.32086256        0.45683728
       28.17440       32.17678399        0.43598314
       28.27410       32.19018945        0.43515938
       28.37379       33.05276058        0.45162440
       28.47348       32.15145103        0.44244195
       28.57318       32.18895307        0.47957884
       28.67287       32.93778770        0.43259833
       28.77256       32.91708053        0.42451097
       28.87226       32.18190637        0.42999608
       28.97195       32.65586169        0.43483416
       29.07164       32.48301877        0.47204980
       29.17134       32.52990252        0.43034736
       29.27103       32.36836456        0.43619101
       29.37072       33.03422100        0.45886532
       29.47042       33.68802293        0.45677379
       29.57011       32.71926780        0.47629128
       29.66980       33.64574252        0.44050134
       29.76950       34.07081935        0.44307088
       29.86919       33.56832119        0.43094549
       29.96888       33.67343276        0.45136028
       30.06858       33.86886230        0.46740938
       30.16827       34.70611439        0.44769382
       30.26796       34.46139448        0.44658551
       30.36766       34.70204841        0.45730557
       30.46735       36.42414714        0.47271872
       30.56704       36.35966703        0.49693936
       30.66674       37.13366942        0.46888878
       30.76643       37.60640412        0.46074887
       30.86612       38.26019418        0.47439677
       30.96582       40.33794153        0.49085749
       31.06551       41.21072492        0.52040143
       31.16520       44.57863525        0.50921961
       31.26490       47.37667603        0.52107399
       31.36459       56.08840662        0.57603879
       31.46428       71.14032855        0.67822982
       31.56398       94.30645714        0.79358478
       31.66367      114.22075682        0.81966772
       31.76336      161.67750834        0.98504914
       31.86306      248.71276793        1.23019481
       31.96275      356.40528437        1.53556698
       32.06244      428.59148504        1.76550675
       32.16214      494.99932806        1.80354767
       32.26183      472.63104256        1.79852110
       32.36152      386.29403781        1.65946098
       32.46122      292.54000232        1.43988399
       32.56091      213.55252507        1.23535274
       32.66061      140.19856260        0.93879222
       32.76030      102.09441355        0.77843825
       32.85999       91.71726245        0.74773782
       32.95969      102.28269916        0.79934517
       33.05938      133.83613898        0.93635418
       33.15907      188.12691125        1.05822573
       33.25877      291.19493976        1.38292027
       33.35846      453.87419133        1.78794747
       33.45815      657.12303927        2.31686663
       33.55785      829.77680705        2.68488337
       33.65754     1048.09033428        2.91236292
       33.75723     1133.04076889        3.06946729
       33.85693     1027.88574453        2.88816302
       33.95662      866.75557943        2.66014586
       34.05631      710.18217067        2.32922156
       34.15601      569.49857097        1.99698895
       34.25570      469.60203772        1.78436899
       34.35539      364.35175065        1.58067416
       34.45509      275.66007647        1.42960213
       34.55478      197.17101123        1.12220515
       34.65447      124.84625504        0.84686652
       34.75417       85.64008413        0.70782162
       34.85386       65.95428327        0.61133739
       34.95355       54.99063077        0.57499991
       35.05325       50.66108581        0.57025638
       35.15294       48.20800484        0.52463743
       35.25263       44.71710857        0.51376245
       35.35233       43.14951283        0.51913732
       35.45202       41.60689984        0.53230470
       35.55171       40.72808650        0.51332619
       35.65141       40.07382902        0.49163570
       35.75110       38.18132692        0.47550625
       35.85079       37.34744256        0.46805226
       35.95049       36.96320466        0.47730743
       36.05018       36.62529755        0.46737977
       36.14987       35.25610520        0.44054899
       36.24957       34.36445742        0.45396861
       36.34926       34.10570935        0.46099063
       36.44895       33.20816125        0.46304218
       36.54865       33.79419424        0.44923849
       36.64834       32.91941897        0.43381580
       36.74803       32.22754437        0.43519597
       36.84773       32.04134051        0.43143680
       36.94742       31.72296220        0.46495130
       37.04711       31.35068538        0.40696533
       37.14681       31.58538274        0.41751770
       37.24650       30.49138264        0.42053730
       37.34620       30.96287459        0.43504271
       37.44589       30.93845356        0.46528268
       37.54558       30.32951133        0.41997818
       37.64528       29.90676812        0.41734589
       37.74497       29.80698367        0.40973747
       37.84466       29.10821497        0.42873068
       37.94436       30.37276796        0.44681659
       38.04405       29.88925235        0.40088631
       38.14374       29.88918748        0.40436099
       38.24344       29.96688491        0.41109993
       38.34313       29.91649728        0.42860717
       38.44282       30.41389025        0.46768605
       38.54252       31.00574349        0.42321625
       38.64221       32.54846223        0.43336519
       38.74190       33.82004775        0.44622524
       38.84160       37.52552559        0.47162103
       38.94129       42.02848164        0.52422395
       39.04098       48.64519282        0.50751303
       39.14068       58.98195484        0.58162551
       39.24037       62.21273572        0.59744795
       39.34006       61.73044119        0.61773847
       39.43976       58.04663286        0.65203915
       39.53945       51.99035524        0.55194707
       39.63914       42.19762562        0.49455890
       39.73884       36.29248690        0.45988013
       39.83853       32.92814422        0.43457032
       39.93822       30.38294246        0.44213465
       40.03792       29.34490712        0.39650189
       40.13761       29.70073110        0.40009301
       40.23730       29.84698477        0.41581043
       40.33700       30.25111494        0.43143175
       40.43669       30.55619401        0.45332105
       40.53638       30.44021238        0.42049831
       40.63608       31.09062495        0.43290682
       40.73577       32.39672803        0.43960015
       40.83546       31.88318423        0.43993999
       40.93516       31.13359376        0.44307252
       41.03485       31.11691851        0.41780834
       41.13454       29.87237743        0.40992266
       41.23424       30.24624293        0.42240507
       41.33393       30.42060188        0.44266736
       41.43362       30.22338624        0.45535602
       41.53332       30.13346491        0.42462990
       41.63301       30.01418074        0.43187833
       41.73270       29.87644105        0.42140206
       41.83240       31.52169646        0.44612447
       41.93209       30.56973173        0.43637201
       42.03179       31.71559130        0.40574237
       42.13148       33.78264900        0.44018750
       42.23117       35.80787884        0.45358005
       42.33087       42.16052603        0.52729419
       42.43056       52.92585793        0.58011939
       42.53025       64.23815116        0.61986051
       42.62995       90.63731578        0.74499665
       42.72964      129.95253759        0.90355270
       42.82933      179.66346613        1.09136973
       42.92903      221.85498286        1.17898726
       43.02872      257.45800152        1.21203394
       43.12841      247.73891831        1.20936223
       43.22811      209.69378600        1.15986747
       43.32780      165.46516459        1.07490637
       43.42749      121.58237046        0.89558931
       43.52719       80.84669623        0.69774858
       43.62688       54.57102388        0.56824935
       43.72657       43.52506795        0.51865079
       43.82627       36.15453163        0.49383332
       43.92596       32.42520896        0.42249554
       44.02565       31.67712237        0.41437410
       44.12535       31.41423125        0.42743809
       44.22504       29.33057473        0.42986427
       44.32473       28.72254221        0.44875466
       44.42443       28.33604238        0.42801822
       44.52412       28.90857653        0.41972808
       44.62381       28.60596816        0.42393960
       44.72351       27.98821424        0.40549217
       44.82320       27.03652964        0.44573032
       44.92289       26.98386303        0.37056278
       45.02259       27.74044101        0.37896455
       45.12228       27.79617394        0.39265313
       45.22197       27.35192360        0.39903275
       45.32167       27.41930355        0.44220217
       45.42136       26.64376523        0.39714995
       45.52105       27.50180769        0.39983788
       45.62075       26.77690239        0.39938499
       45.72044       26.28283547        0.39442662
       45.82013       26.36154689        0.43134121
       45.91983       26.10520312        0.36612935
       46.01952       25.59396101        0.37198183
       46.11921       26.00028443        0.37566072
       46.21891       26.23268208        0.39632211
       46.31860       25.33821297        0.42088769
       46.41830       25.82835127        0.39252949
       46.51799       25.52600276        0.39085763
       46.61768       25.98686650        0.39238248
       46.71738       25.88849775        0.40242086
       46.81707       25.91642237        0.41797666
       46.91676       25.19477367        0.36057749
       47.01646       25.52438316        0.37263401
       47.11615       25.94933974        0.38350871
       47.21584       25.75674420        0.39376302
       47.31554       25.93018595        0.42911382
       47.41523       26.34947688        0.40533125
       47.51492       26.11389269        0.40524148
       47.61462       25.76354401        0.40073136
       47.71431       25.39563424        0.40249808
       47.81400       25.47330637        0.41428719
       47.91370       25.19543656        0.36201250
       48.01339       25.75352236        0.36519435
       48.11308       24.65310887        0.36928063
       48.21278       24.72453117        0.38483454
       48.31247       24.92066062        0.39849763
       48.41216       24.94700087        0.37300173
       48.51186       25.17156806        0.38751141
       48.61155       24.94949750        0.38389336
       48.71124       25.34274618        0.39479569
       48.81094       25.37224345        0.39262792
       48.91063       25.06182842        0.34864546
       49.01032       24.06851967        0.35183978
       49.11002       24.95085788        0.37185330
       49.20971       24.16891842        0.38537733
       49.30940       24.27806375        0.39902060
       49.40910       24.73600601        0.38331306
       49.50879       24.22388136        0.38664402
       49.60848       24.54607589        0.39306117
       49.70818       24.22747314        0.40565128
       49.80787       24.52196323        0.39592757
       49.90756       24.70658801        0.36044399
       50.00726       25.19082250        0.37240592
       50.10695       25.24657846        0.38193513
       50.20664       26.25990432        0.40840494
       50.30634       25.65606783        0.42257740
       50.40603       25.54479966        0.39520900
       50.50572       26.20596191        0.40049002
       50.60542       25.95667993        0.39898187
       50.70511       26.59859646        0.41494017
       50.80480       26.42598562        0.40567457
       50.90450       27.17565379        0.37287657
       51.00419       26.71216636        0.37455217
       51.10389       28.08143886        0.39697775
       51.20358       30.43459848        0.44054476
       51.30327       32.91903915        0.45563552
       51.40297       37.64727809        0.46683331
       51.50266       45.80847563        0.51896267
       51.60235       58.52932514        0.59945974
       51.70205       77.85414952        0.73866506
       51.80174       95.85444598        0.75866375
       51.90143      120.54016788        0.79965684
       52.00113      142.07944559        0.87450625
       52.10082      150.65861226        0.93294992
       52.20051      146.14497984        1.00803042
       52.30021      135.69107822        0.93093415
       52.39990      119.73166419        0.85466252
       52.49959       99.85945567        0.79211627
       52.59929       80.39006619        0.72107894
       52.69898       67.11199651        0.72159175
       52.79867       53.21318559        0.54101736
       52.89837       41.22484945        0.45764432
       52.99806       34.28668593        0.42320512
       53.09775       30.76986254        0.41226640
       53.19745       28.86912197        0.45648045
       53.29714       26.70636934        0.38775517
       53.39683       27.44921493        0.40951336
       53.49653       26.70147132        0.40725636
       53.59622       27.15137442        0.41075225
       53.69591       26.58474768        0.44674744
       53.79561       25.62499425        0.36682242
       53.89530       25.76243117        0.36276015
       53.99499       25.21585487        0.36508973
       54.09469       25.52891774        0.38534268
       54.19438       25.22104737        0.41725570
       54.29407       25.51952565        0.38776740
       54.39377       25.02468161        0.38699352
       54.49346       25.41950743        0.39084774
       54.59315       25.35484447        0.39647832
       54.69285       24.77933267        0.41765746
       54.79254       25.15501877        0.36041646
       54.89223       24.98793529        0.35596386
       54.99193       24.58411222        0.36402902
       55.09162       24.83564539        0.38226990
       55.19131       25.04107058        0.41353266
       55.29101       24.80501600        0.38304042
       55.39070       25.11969525        0.39725820
       55.49039       25.07024390        0.39433614
       55.59009       25.15632571        0.40718063
       55.68978       24.93386742        0.41507326
       55.78948       25.08206107        0.36322972
       55.88917       27.06966054        0.37829736
       55.98886       29.12706121        0.39640757
       56.08856       32.05185934        0.43020747
       56.18825       35.00488683        0.48620217
       56.28794       37.73079307        0.46117127
       56.38764       39.93715172        0.49002177
       56.48733       42.20056301        0.50997074
       56.58702       40.65510896        0.51422460
       56.68672       42.26467738        0.54157916
       56.78641       41.32371379        0.46244009
       56.88610       41.71139017        0.46938098
       56.98580       40.65667597        0.46364173
       57.08549       40.67372898        0.49214711
       57.18518       39.22436230        0.50064858
       57.28488       38.17412687        0.45891679
       57.38457       35.37008748        0.46754816
       57.48426       31.53046956        0.45049826
       57.58396       30.74457613        0.45733146
       57.68365       28.57771495        0.44657623
       57.78334       25.82763860        0.37114737
       57.88304       25.13876621        0.37037960
       57.98273       25.15957463        0.37596146
       58.08242       25.26938475        0.40580665
       58.18212       25.27677195        0.41400813
       58.28181       25.24413501        0.38817215
       58.38150       25.66284249        0.41237167
       58.48120       27.09733247        0.43446989
       58.58089       28.41435430        0.45099691
       58.68058       30.94983930        0.46076666
       58.78028       35.86185776        0.43306993
       58.87997       44.48223133        0.47411403
       58.97966       56.14467674        0.55223699
       59.07936       69.91158602        0.65843377
       59.17905       80.74545811        0.71943330
       59.27874       89.35654391        0.72182140
       59.37844       91.74282581        0.75645684
       59.47813       92.36444205        0.79067807
       59.57782       86.70236608        0.79867767
       59.67752       76.39444168        0.69582323
       59.77721       62.24332608        0.57503653
       59.87690       46.77056500        0.49275414
       59.97660       36.53366925        0.45573536
       60.07629       31.62517333        0.45971639
       60.17598       28.94603531        0.42146519
       60.27568       26.31807612        0.38993048
       60.37537       25.67723709        0.39198728
       60.47507       24.95319106        0.40152829
       60.57476       24.24007585        0.43432920
       60.67445       24.06977183        0.37034004
       60.77415       23.66024683        0.34860618
       60.87384       23.78329941        0.34497327
       60.97353       22.92783247        0.35770663
       61.07323       23.57152447        0.40888447
       61.17292       23.15488616        0.35023736
       61.27261       23.42334591        0.36395637
       61.37231       22.69222999        0.37050460
       61.47200       22.94853388        0.38774032
       61.57169       22.42917027        0.43581430
       61.67139       22.70997432        0.35817582
       61.77108       22.79173088        0.35159952
       61.87077       22.86608549        0.34967173
       61.97047       22.33326872        0.35813885
       62.07016       22.79816779        0.40968184
       62.16985       23.33106039        0.36307095
       62.26955       22.57915397        0.37067336
       62.36924       22.21838047        0.38000621
       62.46893       22.32302876        0.39545409
       62.56863       23.17970064        0.45340833
       62.66832       22.88106432        0.36569894
       62.76801       23.05774069        0.35768802
       62.86771       22.92393209        0.34826905
       62.96740       22.29774143        0.35278329
       63.06709       22.57775613        0.39556984
       63.16679       22.40193246        0.34757673
       63.26648       22.27526098        0.35801652
       63.36617       23.09925493        0.38048407
       63.46587       23.29232351        0.39563208
       63.56556       22.91920983        0.41803577
       63.66525       23.09688665        0.35495746
       63.76495       23.58034164        0.34819854
       63.86464       23.38971154        0.34463258
       63.96433       23.74983710        0.36303722
       64.06403       22.57330205        0.37769716
       64.16372       23.42406244        0.35772656
       64.26341       23.74105887        0.37768878
       64.36311       23.08697328        0.38004196
       64.46280       24.45942938        0.41312662
       64.56249       24.22130401        0.41742215
       64.66219       23.31967476        0.35773760
       64.76188       23.84713893        0.35641681
       64.86157       23.89663545        0.35491515
       64.96127       23.51809614        0.37042652
       65.06096       24.65492577        0.41196832
       65.16066       24.76883621        0.37453065
       65.26035       25.24487740        0.38582029
       65.36004       25.78499513        0.40577089
       65.45974       25.20605083        0.41392135
       65.55943       26.32117908        0.44198110
       65.65912       27.26864391        0.38960526
       65.75882       29.22103748        0.39970570
       65.85851       31.25632505        0.41394098
       65.95820       35.52940821        0.46534203
       66.05790       38.40380585        0.50047238
       66.15759       41.73352375        0.49589005
       66.25728       46.78341081        0.54083758
       66.35698       51.92665666        0.59234099
       66.45667       58.13098547        0.66549318
       66.55636       66.84421808        0.71167522
       66.65606       80.32420270        0.69485989
       66.75575      104.46600616        0.78326402
       66.85544      143.53440224        0.91822002
       66.95514      196.42705635        1.12782965
       67.05483      260.87655111        1.32269794
       67.15452      342.58749373        1.46186237
       67.25422      437.14019703        1.75736378
       67.35391      513.41110529        2.01802747
       67.45360      581.98644966        2.30382661
       67.55330      627.92346582        2.32834841
       67.65299      672.66382483        2.19175431
       67.75268      680.94196496        2.18089144
       67.85238      661.36051035        2.16354703
       67.95207      620.97548266        2.22302605
       68.05176      565.03044471        1.98620042
       68.15146      477.45855431        1.77412009
       68.25115      402.80391514        1.70705315
       68.35084      349.34422420        1.65339105
       68.45054      309.84069278        1.71121725
       68.55023      275.76783937        1.38202946
       68.64992      222.70060703        1.14063265
       68.74962      168.23352570        0.98944898
       68.84931      123.14181073        0.85028004
       68.94900       93.26950767        0.83136910
       69.04870       66.99153954        0.58939076
       69.14839       50.03189390        0.52629002
       69.24808       42.77784734        0.52400799
       69.34778       35.55805163        0.49181486
       69.44747       32.91854586        0.54636932
       69.54716       30.16006978        0.40733559
       69.64686       28.53872825        0.38981809
       69.74655       27.72587128        0.38616690
       69.84625       26.27295266        0.38464093
       69.94594       26.92290587        0.43953035
       70.04563       26.27896767        0.36036141
       70.14533       26.32754289        0.37644694
       70.24502       25.78578886        0.39782814
       70.34471       26.69089156        0.42790247
       70.44441       26.72369049        0.50287975
       70.54410       27.70954770        0.40045110
       70.64379       28.61179213        0.40443706
       70.74349       29.76371969        0.41867849
       70.84318       29.42513635        0.43591503
       70.94287       29.67900853        0.48329812
       71.04257       30.86079773        0.40686268
       71.14226       30.23806879        0.41714070
       71.24195       28.47387506        0.42495125
       71.34165       26.84157135        0.43541356
       71.44134       25.58750674        0.47309839
       71.54103       25.42483443        0.38375481
       71.64073       24.09868041        0.36641068
       71.74042       24.67097012        0.36676404
       71.84011       25.12646767        0.38387975
       71.93981       24.08277128        0.40865600
       72.03950       24.21208589        0.34550943
       72.13919       24.74495481        0.36396941
       72.23889       23.43772547        0.36799728
       72.33858       23.09036563        0.40697167
       72.43827       22.64258423        0.44296936
       72.53797       23.99279491        0.37155618
       72.63766       24.07818474        0.36526663
       72.73735       23.46305607        0.35152078
       72.83705       24.18344912        0.37596457
       72.93674       25.06503462        0.40620981
       73.03643       25.89510804        0.35702449
       73.13613       26.78709501        0.38136578
       73.23582       28.56972635        0.41536454
       73.33551       28.46414679        0.45934191
       73.43521       30.99920256        0.52087268
       73.53490       31.35610614        0.42237444
       73.63459       32.28343891        0.42156731
       73.73429       33.90737728        0.42883926
       73.83398       34.01603263        0.45472692
       73.93367       34.60311311        0.48216270
       74.03337       34.43470151        0.42374203
       74.13306       35.69332893        0.45455161
       74.23276       36.41339375        0.48009091
       74.33245       36.49913955        0.52831743
       74.43214       35.62912184        0.53909667
       74.53184       35.96658194        0.45975963
       74.63153       35.28292769        0.45178630
       74.73122       33.03336168        0.43370278
       74.83092       31.22286604        0.44559643
       74.93061       29.44618235        0.43800766
       75.03030       27.80241882        0.38369553
       75.13000       25.06616520        0.37656566
       75.22969       22.46182522        0.37129832
       75.32938       21.96974883        0.40221230
       75.42908       21.51504756        0.40306193
       75.52877       21.36855767        0.34836881
       75.62846       20.18211119        0.33620706
       75.72816       20.32863627        0.33759322
       75.82785       20.62059202        0.36837799
       75.92754       21.06301920        0.35207742
       76.02724       20.93788353        0.32747457
       76.12693       20.96542355        0.34086824
       76.22662       20.47419936        0.35538242
       76.32632       20.28765269        0.39943474
       76.42601       19.75391090        0.36880342
       76.52570       19.71830892        0.33884035
       76.62540       20.57028934        0.34579330
       76.72509       20.87144874        0.34538186
       76.82478       20.19551599        0.39198525
       76.92448       19.84703386        0.30879218
       77.02417       20.09317022        0.32135666
       77.12386       20.23617091        0.33810885
       77.22356       19.96790430        0.35624400
       77.32325       19.29446673        0.42813993
       77.42294       19.44962406        0.34410662
       77.52264       20.25026304        0.34463881
       77.62233       19.63962002        0.33766865
       77.72202       20.02960594        0.34024463
       77.82172       20.20101367        0.39921161
       77.92141       19.82292477        0.30313989
       78.02110       19.68691739        0.32520932
       78.12080       19.61188635        0.34428169
       78.22049       20.18549079        0.37151688
       78.32018       20.93358648        0.44071690
       78.41988       20.02042915        0.34060817
       78.51957       20.00205643        0.35075815
       78.61926       19.44655137        0.34345859
       78.71896       19.57111562        0.34520096
       78.81865       19.76818827        0.38658035
       78.91835       19.43321366        0.29552442
       79.01804       19.69125502        0.32754747
       79.11773       20.04557358        0.34631337
       79.21743       19.51048831        0.36517725
       79.31712       20.87487971        0.42545127
       79.41681       21.12030545        0.34510432
       79.51651       22.05909018        0.35901538
       79.61620       22.55101581        0.36334279
       79.71589       23.81127389        0.38684461
       79.81559       24.89951889        0.41810752
       79.91528       26.93571975        0.36967327
       80.01497       30.24939715        0.40844909
       80.11467       32.76732432        0.44303638
       80.21436       34.20476798        0.48314267
       80.31405       35.19446957        0.58195437
       80.41375       35.89776212        0.44979733
       80.51344       36.70018842        0.45271718
       80.61313       35.90101667        0.45972796
       80.71283       35.68689555        0.47632847
       80.81252       35.83745204        0.53790145
       80.91221       35.54282662        0.39966851
       81.01191       32.70454789        0.41068355
       81.11160       29.64814151        0.42094729
       81.21129       27.77490006        0.43982330
       81.31099       26.69851083        0.48015462
       81.41068       23.46946456        0.35033934
       81.51037       21.74828905        0.34582213
       81.61007       21.68105566        0.36471662
       81.70976       20.79166304        0.37011460
       81.80945       21.17946505        0.39732561
       81.90915       20.85736857        0.30034353
       82.00884       20.53188125        0.31890854
       82.10853       19.87554214        0.34955545
       82.20823       19.36275857        0.38161238
       82.30792       19.27961090        0.39815170
       82.40761       19.13403370        0.32414341
       82.50731       20.76268361        0.34173295
       82.60700       20.44046938        0.36309363
       82.70669       20.64618754        0.39739443
       82.80639       20.15707704        0.37418011
       82.90608       19.26028101        0.29635198
       83.00577       19.95919351        0.31915262
       83.10547       20.20531961        0.37711008
       83.20516       20.50207263        0.42562607
       83.30485       20.03514480        0.40200272
       83.40455       20.73436281        0.34132156
       83.50424       20.34185553        0.32812858
       83.60394       20.97999750        0.36695406
       83.70363       21.64861036        0.41903770
       83.80332       21.49452617        0.36536294
       83.90302       22.32462539        0.31128884
       84.00271       23.60427010        0.33324105
       84.10240       23.47227670        0.40226646
       84.20210       23.86403862        0.49273635
       84.30179       23.93968555        0.40138712
       84.40148       23.82129779        0.35166302
       84.50118       24.46943918        0.35007323
       84.60087       24.86363191        0.39774583
       84.70056       24.31775402        0.51154388
       84.80026       24.05623471        0.35545618
       84.89995       24.15716887        0.32153504
       84.99964       23.70889630        0.33154111
       85.09934       22.57926791        0.38118050
       85.19903       23.48990748        0.66588007
       85.29872       21.29216912        0.33338528
       85.39842       20.81693388        0.33500998
       85.49811       20.19514872        0.32053023
       85.59780       19.94746885        0.35682936
       85.69750       19.30933033        0.63141792
       85.79719       19.90370564        0.30620142
       85.89688       19.83459581        0.29853124
       85.99658       19.57586201        0.30357996
       86.09627       19.29205945        0.34535164
       86.19596       19.96963838        0.67813331
       86.29566       18.52343160        0.30732653
       86.39535       19.06987112        0.31516432
       86.49504       19.03364834        0.30988374
       86.59474       19.59257370        0.33992329
       86.69443       19.81955521        0.71633425
       86.79412       19.78100986        0.29786296
       86.89382       20.03211751        0.29197281
       86.99351       20.50568915        0.30674450
       87.09320       20.78226159        0.34247085
       87.19290       20.40332882        0.80497167
       87.29259       20.65049325        0.32605351
       87.39228       21.83605165        0.34350008
       87.49198       22.66846965        0.34297071
       87.59167       22.78837484        0.34804593
       87.69136       22.00469301        1.02287783
       87.79106       23.41278297        0.32728990
       87.89075       23.17330313        0.32297438
       87.99044       22.82719551        0.33177336
       88.09014       22.77258649        0.35193392
       88.18983       24.35724463        1.93786895
       88.28953       23.03793144        0.36060222
       88.38922       22.46106608        0.35945622
       88.48891       21.60266934        0.33656836
       88.58861       20.45183076        0.31603816
       88.68830       23.14372673        2.63579513
       88.78799       19.97997144        0.30135263
       88.88769       19.42709877        0.28874112
       88.98738       19.41879069        0.30133705
       89.08707       20.19161465        0.31807435
       89.18677       18.03052014        2.44809129
       89.28646       19.24164626        0.31452854
       89.38615       19.21466963        0.31543674
       89.48585       18.93623121        0.30720174
       89.58554       19.18335254        0.30168299
       89.68523       18.95904860        2.42384674
       89.78493       18.89431119        0.28915325
       89.88462       19.51259899        0.29132857
       89.98431       19.30174016        0.29902990
       90.08401       19.13287611        0.30623666
       90.18370       16.96072699        2.38558982
       90.28339       18.78224423        0.30946005
       90.38309       19.23897434        0.31807782
       90.48278       19.23115773        0.31089040
       90.58247       19.41414437        0.30734411
       90.68217       22.06862718        2.58843994
       90.78186       20.00226134        0.30263198
       90.88155       20.79374138        0.30091879
       90.98125       20.59351496        0.30778932
       91.08094       20.74947322        0.31884844
       91.18063       20.51131921        2.52718011
       91.28033       20.76458322        0.32775533
       91.38002       20.83306845        0.33534965
       91.47971       22.25126629        0.33830076
       91.57941       22.49668019        0.33384406
       91.67910       26.91089095        2.76869041
       91.77879       24.22768727        0.33194689
       91.87849       26.19043512        0.33812330
       91.97818       29.69738112        0.37412841
       92.07787       33.49580486        0.41248338
       92.17757       32.33338959        3.07671534
       92.27726       38.03570133        0.45309916
       92.37695       45.24511914        0.51092794
       92.47665       55.97455769        0.54720514
       92.57634       71.97879003        0.59899963
       92.67603       82.73799157        4.20531383
       92.77573       95.02829668        0.66598687
       92.87542      124.81952034        0.75166291
       92.97512      150.55913375        0.86350843
       93.07481      171.82479189        1.05581079
       93.17450      177.56310514        2.02665008
       93.27420      193.48657099        1.04891599
       93.37389      211.41467503        1.07019899
       93.47358      226.78885980        1.11760971
       93.57328      244.53987512        1.34772735
       93.67297      250.54530888        1.84149908
       93.77266      263.32903584        1.17223260
       93.87236      271.98140100        1.13252581
       93.97205      275.09669563        1.19991704
       94.07174      271.28816061        1.55786114
       94.17144      266.41388955        1.76230487
       94.27113      253.40320057        1.26806554
       94.37082      239.19893083        1.19057779
       94.47052      224.39184824        1.10429879
       94.57021      213.68450732        1.41857587
       94.66990      212.15780412        1.42588831
       94.76960      206.76530284        1.08814675
       94.86929      203.30540988        0.99086132
       94.96898      189.81103785        0.96927963
       95.06868      174.80706136        1.06424049
       95.16837      166.79145790        1.41682302
       95.26806      158.25908692        1.06411439
       95.36776      146.62427727        0.92593880
       95.46745      134.08572034        0.84817416
       95.56714      125.75067134        0.94027454
       95.66684      120.96297626        1.04244432
       95.76653      116.43650653        0.84920492
       95.86622      103.60385155        0.68016776
       95.96592       86.10331198        0.63701978
       96.06561       71.60733552        0.74202240
       96.16530       66.05558783        0.75561947
       96.26500       56.34709034        0.62594309
       96.36469       49.14090544        0.52054617
       96.46438       42.06866104        0.46787435
       96.56408       39.57593191        0.56643917
       96.66377       37.94234259        0.53853743
       96.76346       35.62752897        0.46468537
       96.86316       33.59233191        0.38917367
       96.96285       32.20841695        0.39300330
       97.06254       32.26967419        0.53015378
       97.16224       32.21723818        0.50692674
       97.26193       31.51844057        0.46884053
       97.36162       32.03225747        0.44236306
       97.46132       32.15288960        0.41171729
       97.56101       31.78100270        0.51688372
       97.66071       30.02013665        0.44934657
       97.76040       29.85521094        0.40731473
       97.86009       28.73718792        0.36009759
       97.95979       27.58571253        0.35847659
       98.05948       28.65636711        0.51108648
       98.15917       28.42628399        0.45456846
       98.25887       28.39176866        0.43652305
       98.35856       27.94644657        0.40705321
       98.45825       27.53787717        0.37563978
       98.55795       26.94351688        0.48473904
       98.65764       26.68572471        0.41335931
       98.75733       26.16975580        0.38056410
       98.85703       25.67472387        0.35134122
       98.95672       24.88149603        0.34708967
       99.05641       24.05136787        0.47577204
       99.15611       23.02227060        0.39919178
       99.25580       22.94092016        0.38431456
       99.35549       23.74273212        0.37155819
       99.45519       23.96753867        0.34759063
       99.55488       22.37649992        0.44814029
       99.65457       23.23744727        0.37620296
       99.75427       22.84148153        0.34924476
       99.85396       22.91584965        0.33702652
       99.95365       22.74942746        0.32912958
      100.05335       23.03760731        0.46948183
      100.15304       22.86586911        0.39281007
      100.25273       22.51494520        0.38520946
      100.35243       21.66682205        0.37502857
      100.45212       21.70853545        0.34240359
      100.55181       20.77930094        0.44085698
      100.65151       21.12223240        0.36350987
      100.75120       21.59089062        0.34220323
      100.85089       21.17962289        0.32316378
      100.95059       20.90451538        0.31185252
      101.05028       20.27559014        0.43806989
      101.14997       21.04297758        0.36776725
      101.24967       19.56226929        0.34928856
      101.34936       19.96964187        0.35446629
      101.44905       20.06386297        0.33698568
      101.54875       19.82356973        0.42091074
      101.64844       20.05110244        0.34443333
      101.74813       19.94261849        0.32213789
      101.84783       19.51317272        0.30882440
      101.94752       19.37811126        0.32419326
      102.04722       18.28452719        0.37835041
      102.14691       19.52857537        0.35207188
      102.24660       19.05513000        0.34488366
      102.34630       19.53575126        0.35188209
      102.44599       18.72817416        0.34948708
      102.54568       19.72304141        0.37550651
      102.64538       19.20125416        0.33030021
      102.74507       19.02444772        0.31225567
      102.84476       18.42200504        0.30095123
      102.94446       18.82408202        0.34506242
      103.04415       19.20352299        0.37229773
      103.14384       18.44771477        0.34188889
      103.24354       18.83136175        0.34066845
      103.34323       19.23287641        0.34089418
      103.44292       18.79773554        0.36463367
      103.54262       18.56288491        0.35169016
      103.64231       18.46190084        0.31842029
      103.74200       18.51343567        0.30360972
      103.84170       18.85497848        0.30043660
      103.94139       19.15193173        0.36777155
      104.04108       18.73702982        0.35227091
      104.14078       18.75746452        0.34140471
      104.24047       18.86895366        0.34153928
      104.34016       18.69811420        0.34143298
      104.43986       18.88695442        0.39081060
      104.53955       18.52832801        0.34895629
      104.63924       18.85571994        0.33012640
      104.73894       19.24006550        0.32051776
      104.83863       19.40383576        0.31245256
      104.93832       19.15808900        0.37593340
      105.03802       19.06278663        0.35197295
      105.13771       19.66772716        0.34402110
      105.23740       19.18313864        0.33842043
      105.33710       19.10556308        0.33847892
      105.43679       19.49226106        0.39804543
      105.53648       20.41589549        0.36655443
      105.63618       19.84074545        0.33233604
      105.73587       19.44277095        0.31469378
      105.83556       20.29866169        0.31269244
      105.93526       20.19775524        0.39452166
      106.03495       19.90711231        0.35467729
      106.13464       19.94478114        0.34263950
      106.23434       19.62863995        0.34187576
      106.33403       19.69165464        0.34612979
      106.43372       20.02829047        0.41754307
      106.53342       20.07581084        0.36418377
      106.63311       19.52971612        0.32656220
      106.73281       19.92463072        0.31329302
      106.83250       19.56203542        0.30504857
      106.93219       19.70876675        0.39625649
      107.03189       19.81826470        0.35212925
      107.13158       19.06088021        0.33442223
      107.23127       19.55520417        0.34506511
      107.33097       19.41795343        0.34400191
      107.43066       19.76428310        0.41815771
      107.53035       19.34082534        0.35550391
      107.63005       19.10486920        0.32148720
      107.72974       18.98490366        0.30704237
      107.82943       18.64485755        0.29996989
      107.92913       19.11133710        0.40148177
      108.02882       18.80571390        0.34911901
      108.12851       19.88844775        0.34327622
      108.22821       19.37734614        0.33401086
      108.32790       19.61277561        0.33172411
      108.42759       19.77756556        0.42239502
      108.52729       19.77090953        0.35809268
      108.62698       19.18177476        0.31881994
      108.72667       20.40578234        0.31526808
      108.82637       20.41298356        0.32306126
      108.92606       21.36940128        0.42085646
      109.02575       21.50020796        0.36932426
      109.12545       21.62259865        0.36070157
      109.22514       21.88264202        0.36193172
      109.32483       22.61025900        0.40014013
      109.42453       22.66410590        0.42233516
      109.52422       22.63735005        0.38076545
      109.62391       23.64545439        0.36978872
      109.72361       24.20972681        0.35832548
      109.82330       24.84133606        0.34154369
      109.92299       24.17790823        0.43813953
      110.02269       24.60128270        0.38539627
      110.12238       25.74235395        0.39143452
      110.22207       25.75019569        0.38812091
      110.32177       25.39592766        0.39289003
      110.42146       24.60090398        0.46855992
      110.52115       25.71718832        0.40770192
      110.62085       26.53425272        0.39198315
      110.72054       26.08717496        0.36488872
      110.82023       25.28214783        0.36965045
      110.91993       26.15786362        0.43691417
      111.01962       25.46727110        0.39825594
      111.11931       24.47867851        0.39219440
      111.21901       24.47618872        0.38433219
      111.31870       24.59303531        0.41725347
      111.41840       24.52234417        0.43376273
      111.51809       23.95313563        0.39105831
      111.61778       24.11431889        0.36945823
      111.71748       23.68553114        0.33934256
      111.81717       22.34306114        0.35662875
      111.91686       23.04137082        0.38071129
      112.01656       22.34216224        0.36597728
      112.11625       22.15821262        0.36671134
      112.21594       21.68088920        0.36196449
      112.31564       22.36917110        0.40758872
      112.41533       22.58409894        0.40214738
      112.51502       21.11239983        0.35733087
      112.61472       21.83748970        0.34633408
      112.71441       21.69529448        0.32506787
      112.81410       21.23196758        0.35944882
      112.91380       21.38803005        0.36708476
      113.01349       21.40437572        0.36022837
      113.11318       21.06738115        0.35762058
      113.21288       20.84167534        0.35510998
      113.31257       20.73635049        0.39140680
      113.41226       21.12152419        0.37466703
      113.51196       20.37460014        0.34592098
      113.61165       20.65815956        0.33618387
      113.71134       19.64000023        0.31211069
      113.81104       19.07523112        0.35240227
      113.91073       19.51287539        0.34750782
      114.01042       19.45803568        0.34408954
      114.11012       19.10940017        0.34039941
      114.20981       19.44418851        0.34485810
      114.30950       18.53699653        0.38147089
      114.40920       18.20307242        0.34893369
      114.50889       18.07367646        0.32546219
      114.60858       18.82101358        0.32213985
      114.70828       18.98152567        0.31258893
      114.80797       18.80278676        0.35457747
      114.90766       19.22230970        0.33745913
      115.00736       18.96157922        0.33288507
      115.10705       18.97183499        0.33403361
      115.20674       18.97184062        0.33924930
      115.30644       18.18702045        0.38042164
      115.40613       18.56654743        0.34862651
      115.50582       18.79964111        0.33192322
      115.60552       19.04879372        0.32351961
      115.70521       19.34088037        0.31383294
      115.80490       18.89249878        0.36087820
      115.90460       18.64797763        0.32431330
      116.00429       18.86114373        0.33001406
      116.10399       19.07664812        0.33403917
      116.20368       18.14058324        0.33289942
      116.30337       18.57941717        0.40247972
      116.40307       18.43528888        0.35046782
      116.50276       18.34140369        0.33113501
      116.60245       18.22294129        0.31729943
      116.70215       18.81809498        0.31072697
      116.80184       18.40084541        0.36447287
      116.90153       18.87812474        0.33233471
      117.00123       18.39692262        0.32512635
      117.10092       19.48734310        0.34349049
      117.20061       19.20334551        0.34614741
      117.30031       19.34980856        0.41779322
      117.40000       20.04636606        0.35627627
      117.49969       19.95347874        0.33738572
      117.59939       20.31523988        0.32486576
      117.69908       20.17741377        0.31340937
      117.79877       20.87092926        0.39092573
      117.89847       21.00435565        0.34052997
      117.99816       21.26141121        0.34761503
      118.09785       22.91710765        0.36978448
      118.19755       24.05996614        0.39590472
      118.29724       24.89690236        0.43901497
      118.39693       25.42794289        0.40474896
      118.49663       27.14225998        0.39343470
      118.59632       28.81912287        0.39027894
      118.69601       32.71417525        0.43490219
      118.79571       35.00753748        0.48690714
      118.89540       37.47137225        0.47110561
      118.99509       43.03950826        0.50553521
      119.09479       47.54150516        0.53587764
      119.19448       54.35482570        0.62485185
      119.29417       60.81830489        0.68814613
      119.39387       67.95426256        0.67041758
      119.49356       77.39254019        0.67413307
      119.59325       88.09807600        0.70126849
      119.69295      100.62596875        0.79474083
      119.79264      111.71264521        0.84988255
      119.89233      123.04912494        0.86615425
      119.99203      136.53876409        0.89308236
      120.09172      147.35284441        0.94841751
      120.19141      156.74127214        1.09933081
      120.29111      165.20238543        1.11677573
      120.39080      174.92444961        1.09978988
      120.49049      185.09281925        1.05733609
      120.59019      196.09960471        1.05962927
      120.68988      205.98585833        1.17248627
      120.78958      211.77441623        1.16207349
      120.88927      220.73936421        1.16864925
      120.98896      225.64128938        1.17020586
      121.08866      233.19429717        1.19637593
      121.18835      240.90640148        1.39911607
      121.28804      244.56267721        1.37492735
      121.38774      250.47447674        1.32125227
      121.48743      251.67544771        1.25413391
      121.58712      253.58213087        1.20053535
      121.68682      250.45726693        1.31327271
      121.78651      251.76292583        1.25673939
      121.88620      244.64515308        1.22184525
      121.98590      237.94993855        1.21095055
      122.08559      228.11213323        1.20652543
      122.18528      224.17289337        1.39550238
      122.28498      216.98415503        1.28755468
      122.38467      207.73638337        1.20306943
      122.48436      196.29391241        1.10337040
      122.58406      183.44801957        1.00678908
      122.68375      172.32720141        1.10267286
      122.78344      162.55908594        1.00368779
      122.88314      149.76925119        0.95430354
      122.98283      140.02868440        0.94097394
      123.08252      133.30089194        0.91374495
      123.18222      125.84162137        1.03238720
      123.28191      117.03474785        0.90061197
      123.38160      108.55000349        0.83596856
      123.48130      101.19835698        0.77581192
      123.58099       93.02557100        0.69361399
      123.68068       86.17053300        0.76048070
      123.78038       79.23602970        0.65752850
      123.88007       73.43520992        0.62076390
      123.97976       65.72068858        0.59582620
      124.07946       61.56404714        0.56958809
      124.17915       54.62564695        0.60326112
      124.27884       51.61664687        0.52469089
      124.37854       47.97694933        0.47545688
      124.47823       44.38740220        0.44725601
      124.57792       40.48371754        0.45477771
