        5.04553       45.42099062        1.06587932
        5.14523       46.75036005        1.03495411
        5.24492       44.04277842        0.99013228
        5.34461       44.63475661        0.91774356
        5.44431       42.62013676        0.98045841
        5.54400       44.00150013        0.83060426
        5.64369       44.89978014        0.84334575
        5.74339       43.30565209        0.74208762
        5.84308       45.52123647        0.77041321
        5.94277       45.31999522        0.76668895
        6.04247       42.64095441        0.72097127
        6.14216       43.49559097        0.67044448
        6.24185       43.46102906        0.69061427
        6.34155       44.11670861        0.66395067
        6.44124       44.37093430        0.70199455
        6.54093       43.51124143        0.65901331
        6.64063       43.75036230        0.62639311
        6.74032       44.43886639        0.63140658
        6.84001       44.64570235        0.62930358
        6.93971       44.30175735        0.63225871
        7.03940       45.37317813        0.59619596
        7.13909       44.47140593        0.58750267
        7.23879       45.27954596        0.58453561
        7.33848       44.22753813        0.58648676
        7.43817       45.12315865        0.58000276
        7.53787       45.35997499        0.57403123
        7.63756       44.54557166        0.54243040
        7.73725       46.44811548        0.57612236
        7.83695       46.21402018        0.55592446
        7.93664       46.12441889        0.57937200
        8.03633       46.56275523        0.52418198
        8.13603       45.59258011        0.51253142
        8.23572       46.16129252        0.52592189
        8.33541       45.62614340        0.51760961
        8.43511       46.13065264        0.55074421
        8.53480       46.29909806        0.51126114
        8.63449       47.40008123        0.51264224
        8.73419       46.93002204        0.49796438
        8.83388       46.79133541        0.50001689
        8.93357       47.73019933        0.50398266
        9.03327       47.34587795        0.48881597
        9.13296       47.80665542        0.48869757
        9.23265       47.65193699        0.49393714
        9.33235       48.46054429        0.51282639
        9.43204       48.29017239        0.50991878
        9.53174       47.82280380        0.48757675
        9.63143       48.20708131        0.50598940
        9.73112       48.16306235        0.50581834
        9.83082       49.99490508        0.53792267
        9.93051       49.38007259        0.52658354
       10.03020       49.46534978        0.50946461
       10.12990       49.62054702        0.49807519
       10.22959       50.21390386        0.52144750
       10.32928       49.76497698        0.54077071
       10.42898       50.48821136        0.53774721
       10.52867       50.73592181        0.52141240
       10.62836       51.47690550        0.52516825
       10.72806       50.60219487        0.52706546
       10.82775       51.30233016        0.52946378
       10.92744       51.76412024        0.53979945
       11.02714       53.21294207        0.52293123
       11.12683       52.73186230        0.53801227
       11.22652       53.28331361        0.54721682
       11.32622       53.29930391        0.56174840
       11.42591       53.58942014        0.54355948
       11.52560       53.32613588        0.53609268
       11.62530       54.77018700        0.54830535
       11.72499       54.01787371        0.55428541
       11.82468       54.90703754        0.57403993
       11.92438       56.82132587        0.55509269
       12.02407       56.98702867        0.54968563
       12.12376       56.58734163        0.55100252
       12.22346       57.53800691        0.58967102
       12.32315       57.90903002        0.59738346
       12.42284       58.31141537        0.57160111
       12.52254       58.72809254        0.56913476
       12.62223       58.76206163        0.58507589
       12.72192       58.71500546        0.56818788
       12.82162       59.56708067        0.61834864
       12.92131       59.80747230        0.56885146
       13.02100       60.34461821        0.56475757
       13.12070       61.40588700        0.57922289
       13.22039       62.33142903        0.60076813
       13.32008       62.07683241        0.62230947
       13.41978       62.64523452        0.59435390
       13.51947       63.79154127        0.61104386
       13.61916       65.35654081        0.59734564
       13.71886       66.27803214        0.63093744
       13.81855       65.31391607        0.63565081
       13.91824       67.06759830        0.60643523
       14.01794       66.57657837        0.59099003
       14.11763       69.54723042        0.62594668
       14.21733       69.37553520        0.62823707
       14.31702       69.89286450        0.66235862
       14.41671       71.65118763        0.65068425
       14.51641       72.62529894        0.63718799
       14.61610       73.08163252        0.64239768
       14.71579       75.03368240        0.66307094
       14.81549       76.24002059        0.70124413
       14.91518       78.40136008        0.65047946
       15.01487       80.85490279        0.67287538
       15.11457       85.24449946        0.69978130
       15.21426       92.06294380        0.75030318
       15.31395       98.94789995        0.79940309
       15.41365      103.77417437        0.79294172
       15.51334      120.48579296        0.83147864
       15.61303      132.96543941        0.90169202
       15.71273      152.96320547        0.95391072
       15.81242      173.48088239        1.06964282
       15.91211      179.97043687        1.05228924
       16.01181      217.86132068        1.12109887
       16.11150      259.83723741        1.27147274
       16.21119      313.86736612        1.45249231
       16.31089      378.61858404        1.61709048
       16.41058      442.19031718        1.73160251
       16.51027      558.82326296        2.02257869
       16.60997      705.13051362        2.24670868
       16.70966      839.17704208        2.56607164
       16.80935      891.39773099        2.69842443
       16.90905      945.87118918        2.71898632
       17.00874      782.78136363        2.30969999
       17.10843      600.51043464        2.08041685
       17.20813      466.77157599        1.80460508
       17.30782      363.17767338        1.57470717
       17.40751      260.27300776        1.30634258
       17.50721      210.07298093        1.12581433
       17.60690      160.97298732        1.00828945
       17.70659      132.67831078        0.91445360
       17.80629      109.85400383        0.83804138
       17.90598       95.52805473        0.72904160
       18.00567       87.26315092        0.70817725
       18.10537       81.59615954        0.66545349
       18.20506       77.72697919        0.71091604
       18.30475       75.79476229        0.66939965
       18.40445       74.47095675        0.64548266
       18.50414       72.09380645        0.65559170
       18.60383       71.46971795        0.64225058
       18.70353       69.34593004        0.66895518
       18.80322       68.02636478        0.62318217
       18.90292       67.93931602        0.61653669
       19.00261       65.75778284        0.58786057
       19.10230       62.73492909        0.61158407
       19.20200       61.27668306        0.61834881
       19.30169       61.60972455        0.59782038
       19.40138       62.03537566        0.59444944
       19.50108       60.26579544        0.59903514
       19.60077       59.18695907        0.58759949
       19.70046       59.12811921        0.61552472
       19.80016       58.66492965        0.58052410
       19.89985       57.34238010        0.55701192
       19.99954       57.24354495        0.56207450
       20.09924       57.11545577        0.56831115
       20.19893       57.10407341        0.60748845
       20.29862       55.35547070        0.56634847
       20.39832       55.45755547        0.58501408
       20.49801       53.51927109        0.56349711
       20.59770       54.37906417        0.57970762
       20.69740       52.98688083        0.59235804
       20.79709       52.62576149        0.56212471
       20.89678       51.61654196        0.54254047
       20.99648       52.17116170        0.55444945
       21.09617       52.05039409        0.57820132
       21.19586       50.61614116        0.56974207
       21.29556       50.23180600        0.55457858
       21.39525       50.44786188        0.55663499
       21.49494       48.48310095        0.53593018
       21.59464       50.20511539        0.55741283
       21.69433       48.80193160        0.57205675
       21.79402       49.49855095        0.52603420
       21.89372       48.41148316        0.50954532
       21.99341       48.39625625        0.53105767
       22.09310       48.14259692        0.53189616
       22.19280       47.52256690        0.56035631
       22.29249       47.87861170        0.52489773
       22.39218       47.65357356        0.53513231
       22.49188       45.91054420        0.52569212
       22.59157       47.57955416        0.54228588
       22.69126       46.49977546        0.56324419
       22.79096       46.60746293        0.50949121
       22.89065       46.56345353        0.49758985
       22.99034       45.61457888        0.50595176
       23.09004       45.40667339        0.52719875
       23.18973       46.24933307        0.53122793
       23.28942       45.62195753        0.51980424
       23.38912       45.90317403        0.52668506
       23.48881       44.78558090        0.52273559
       23.58851       45.89354932        0.53601526
       23.68820       45.37426395        0.56120326
       23.78789       44.88053112        0.49690164
       23.88759       45.72848473        0.50882069
       23.98728       44.26086113        0.51068550
       24.08697       44.73632172        0.50347747
       24.18667       44.00733561        0.53544730
       24.28636       43.98323917        0.50778696
       24.38605       44.22140379        0.52025283
       24.48575       44.05827547        0.51848976
       24.58544       45.04113491        0.54029497
       24.68513       43.29174204        0.52963003
       24.78483       43.82121733        0.49113069
       24.88452       43.60389688        0.48871735
       24.98421       43.24494417        0.50337290
       25.08391       43.20973105        0.51362429
       25.18360       42.59633019        0.52091305
       25.28329       42.52578706        0.50170835
       25.38299       43.98761033        0.50886944
       25.48268       43.75648220        0.51052035
       25.58237       43.68837559        0.53074797
       25.68207       43.85717969        0.52108440
       25.78176       42.93440985        0.48453370
       25.88145       42.48218769        0.49476893
       25.98115       43.41733901        0.50565361
       26.08084       41.66879323        0.50742146
       26.18053       43.21705710        0.53109445
       26.28023       42.63150939        0.49912555
       26.37992       42.20603470        0.49691215
       26.47961       43.44866015        0.52087454
       26.57931       42.47954655        0.53735384
       26.67900       42.47728403        0.50284337
       26.77869       43.09472376        0.50295846
       26.87839       41.90928013        0.49052147
       26.97808       42.58400148        0.49136404
       27.07777       43.22177137        0.53340419
       27.17747       43.45895784        0.51065465
       27.27716       42.59205236        0.49267670
       27.37685       43.65875604        0.51842690
       27.47655       43.10231527        0.50703280
       27.57624       43.32501569        0.53111417
       27.67593       43.25823032        0.51972831
       27.77563       43.32216591        0.49795102
       27.87532       43.14201631        0.48862806
       27.97502       43.50048368        0.50054099
       28.07471       43.70130691        0.53171593
       28.17440       42.85915138        0.50357954
       28.27410       43.75153206        0.50782259
       28.37379       43.77295147        0.52014915
       28.47348       44.12602083        0.51888392
       28.57318       43.42981140        0.55757050
       28.67287       43.82776561        0.49943540
       28.77256       44.34867732        0.49321390
       28.87226       43.81374542        0.50222580
       28.97195       43.59302962        0.50283216
       29.07164       43.97544178        0.54977772
       29.17134       44.42741325        0.50345740
       29.27103       43.68226538        0.50719496
       29.37072       44.73773904        0.53454208
       29.47042       45.62420838        0.53213786
       29.57011       44.06255077        0.55324085
       29.66980       45.49147554        0.51274508
       29.76950       44.81016737        0.50853792
       29.86919       44.75845527        0.49806900
       29.96888       45.25391315        0.52376690
       30.06858       45.60216184        0.54291759
       30.16827       45.50599522        0.51306330
       30.26796       45.67942713        0.51463076
       30.36766       46.48986991        0.52985474
       30.46735       46.91117190        0.53687843
       30.56704       47.62301896        0.56924987
       30.66674       48.48899236        0.53631055
       30.76643       48.01623420        0.52101469
       30.86612       50.03410503        0.54306070
       30.96582       49.46018741        0.54378919
       31.06551       51.01701228        0.57937207
       31.16520       51.69642874        0.54839487
       31.26490       54.82246651        0.56059215
       31.36459       59.16316828        0.59114488
       31.46428       67.52130227        0.65930769
       31.56398       80.51332477        0.73012650
       31.66367       94.06553197        0.73971982
       31.76336      117.74887266        0.83203509
       31.86306      168.94753131        0.99674948
       31.96275      234.93864511        1.21661486
       32.06244      287.58434377        1.40694190
       32.16214      344.59739588        1.46235536
       32.26183      346.59917387        1.50323623
       32.36152      302.03115679        1.44254416
       32.46122      243.18793206        1.29868328
       32.56091      189.18606058        1.15558295
       32.66061      136.23464985        0.92339266
       32.76030      106.49100060        0.79461605
       32.85999       98.44418825        0.77464808
       32.95969      105.27496749        0.81030443
       33.05938      135.13820962        0.93983177
       33.15907      184.22487910        1.04495002
       33.25877      282.18704011        1.35723234
       33.35846      432.48429279        1.73642987
       33.45815      635.79407311        2.26817612
       33.55785      826.61186565        2.67549522
       33.65754     1071.38876791        2.95169329
       33.75723     1223.23107394        3.22739654
       33.85693     1176.72743944        3.15479864
       33.95662     1018.19808100        2.94760625
       34.05631      827.87453698        2.56020791
       34.15601      598.31629501        2.05461053
       34.25570      413.33039399        1.65507604
       34.35539      281.43861422        1.36590387
       34.45509      187.53094719        1.15746110
       34.55478      127.88071572        0.89004870
       34.65447       89.06483934        0.70904989
       34.75417       71.63142749        0.64454388
       34.85386       63.23561906        0.59740506
       34.95355       58.87800939        0.59460276
       35.05325       55.41628223        0.59615231
       35.15294       54.21700194        0.55627213
       35.25263       53.16842856        0.56039624
       35.35233       51.33965456        0.56642157
       35.45202       50.80360160        0.58848576
       35.55171       48.20609268        0.55853627
       35.65141       48.29709738        0.53987810
       35.75110       46.65341343        0.52579628
       35.85079       45.76674861        0.51829765
       35.95049       44.24910296        0.52227854
       36.05018       44.35384656        0.51442492
       36.14987       42.90295861        0.48606042
       36.24957       42.96559664        0.50779525
       36.34926       41.69631583        0.50979065
       36.44895       41.63500128        0.51864328
       36.54865       40.78485049        0.49353133
       36.64834       39.84907541        0.47730093
       36.74803       40.48078148        0.48788902
       36.84773       39.42195857        0.47860389
       36.94742       39.75062509        0.52059177
       37.04711       38.94332195        0.45364390
       37.14681       39.16615862        0.46499790
       37.24650       38.35823112        0.47177540
       37.34620       37.94897449        0.48163741
       37.44589       37.85438451        0.51466935
       37.54558       37.47811609        0.46688171
       37.64528       37.93793330        0.47016825
       37.74497       38.42731809        0.46539959
       37.84466       36.59297212        0.48076234
       37.94436       37.94590818        0.49949660
       38.04405       36.83198252        0.44502183
       38.14374       37.63557803        0.45382711
       38.24344       37.19619853        0.45804404
       38.34313       37.19915714        0.47797699
       38.44282       37.22795504        0.51742359
       38.54252       38.72658625        0.47306669
       38.64221       39.18574124        0.47547731
       38.74190       41.47405398        0.49422598
       38.84160       46.67170604        0.52621537
       38.94129       51.13148643        0.57848473
       39.04098       58.71145432        0.55792792
       39.14068       65.67437963        0.61371126
       39.24037       70.77221559        0.63744602
       39.34006       67.87707463        0.64766329
       39.43976       63.82583105        0.68356943
       39.53945       57.14355274        0.57844444
       39.63914       47.90908183        0.52683622
       39.73884       42.65867797        0.49853073
       39.83853       39.25878886        0.47445373
       39.93822       38.10811576        0.49525077
       40.03792       36.08571574        0.43967635
       40.13761       36.96759058        0.44639854
       40.23730       36.31043557        0.45858740
       40.33700       37.63133473        0.48123953
       40.43669       37.17720907        0.50000005
       40.53638       37.49657906        0.46671496
       40.63608       37.81839463        0.47743755
       40.73577       37.62502603        0.47357989
       40.83546       37.85135682        0.47925758
       40.93516       38.27084740        0.49126650
       41.03485       36.64969439        0.45330380
       41.13454       36.88708101        0.45552879
       41.23424       36.45940382        0.46369918
       41.33393       36.59440555        0.48543965
       41.43362       36.51727485        0.50046538
       41.53332       36.47669179        0.46713684
       41.63301       36.37311389        0.47537833
       41.73270       36.48574977        0.46565931
       41.83240       35.67805330        0.47435220
       41.93209       37.52115214        0.48345366
       42.03179       36.85878225        0.43724430
       42.13148       39.04881582        0.47309244
       42.23117       41.32622524        0.48713789
       42.33087       46.10078111        0.55104172
       42.43056       54.24647562        0.58662657
       42.53025       66.88241376        0.63192954
       42.62995       87.73958286        0.73150940
       42.72964      120.13699927        0.86580808
       42.82933      151.47411799        0.99508008
       42.92903      175.21388921        1.03671606
       43.02872      187.78823667        1.01971886
       43.12841      171.06223204        0.98852465
       43.22811      137.64862933        0.92502326
       43.32780      108.02601065        0.85726778
       43.42749       80.80675286        0.72300044
       43.52719       59.02420024        0.59263061
       43.62688       46.66012167        0.52381803
       43.72657       40.96578734        0.50217019
       43.82627       38.26734744        0.50754582
       43.92596       36.55867850        0.44835577
       44.02565       35.65051662        0.43932409
       44.12535       34.33912220        0.44651909
       44.22504       34.23985498        0.46425345
       44.32473       34.25364960        0.48992203
       44.42443       33.48315198        0.46509840
       44.52412       33.63578640        0.45253975
       44.62381       33.00830598        0.45515422
       44.72351       32.88444131        0.43934641
       44.82320       32.93438808        0.49184731
       44.92289       32.49279911        0.40651467
       45.02259       32.59742415        0.41062625
       45.12228       32.42525946        0.42388723
       45.22197       32.47241228        0.43461955
       45.32167       32.13085496        0.47846875
       45.42136       31.82182522        0.43387208
       45.52105       30.75391109        0.42249223
       45.62075       31.11157035        0.43026643
       45.72044       30.81056438        0.42683750
       45.82013       31.35918014        0.47026618
       45.91983       31.10933128        0.39952408
       46.01952       30.77065734        0.40772158
       46.11921       30.81131889        0.40876205
       46.21891       29.88852725        0.42274794
       46.31860       31.08430588        0.46606192
       46.41829       30.94736334        0.42950961
       46.51799       30.60772970        0.42783532
       46.61768       30.45491284        0.42455913
       46.71738       31.24002916        0.44191767
       46.81707       30.42401365        0.45264054
       46.91676       30.85336680        0.39891599
       47.01646       31.89419047        0.41649812
       47.11615       31.81876293        0.42458028
       47.21584       31.17091811        0.43304053
       47.31554       30.82277355        0.46765085
       47.41523       31.06375192        0.43989687
       47.51492       30.92455968        0.44079695
       47.61462       30.63778102        0.43681113
       47.71431       29.95718165        0.43693865
       47.81400       30.06135517        0.44983289
       47.91370       30.68171301        0.39936805
       48.01339       29.40991315        0.38999126
       48.11308       29.72747889        0.40535229
       48.21278       29.36863453        0.41922302
       48.31247       29.21685457        0.43124477
       48.41216       29.70419486        0.40683120
       48.51186       29.28695494        0.41774473
       48.61155       29.12266877        0.41451974
       48.71124       29.88207567        0.42848388
       48.81094       29.34901810        0.42201730
       48.91063       29.66486158        0.37913010
       49.01032       29.12610965        0.38689471
       49.11002       29.08640460        0.40125483
       49.20971       29.20152362        0.42343751
       49.30940       29.44736106        0.43929179
       49.40910       29.22809964        0.41645524
       49.50879       29.55029708        0.42690030
       49.60848       29.18543678        0.42839558
       49.70818       29.22612838        0.44535906
       49.80787       29.55765865        0.43451262
       49.90756       29.35507316        0.39270521
       50.00726       29.98406168        0.40611368
       50.10695       29.94576790        0.41577125
       50.20664       30.30372030        0.43846048
       50.30634       30.13861828        0.45777422
       50.40603       30.21620937        0.42962681
       50.50572       30.74559628        0.43357759
       50.60542       30.46588251        0.43203249
       50.70511       31.57110802        0.45188162
       50.80480       30.37827070        0.43468365
       50.90450       31.51813881        0.40134794
       51.00419       31.45858419        0.40628445
       51.10388       34.01769219        0.43683905
       51.20358       35.65722863        0.47667999
       51.30327       38.43853222        0.49221145
       51.40297       43.77355855        0.50330496
       51.50266       52.76361222        0.55697621
       51.60235       68.52005774        0.64902848
       51.70205       83.49158525        0.76474286
       51.80174       98.15951995        0.76700689
       51.90143      112.00060337        0.76838359
       52.00113      118.10990625        0.79234733
       52.10082      114.00832245        0.80443088
       52.20051      102.55552108        0.83578288
       52.30021       89.86722033        0.74947346
       52.39990       72.59743489        0.65813326
       52.49959       58.47253930        0.60009134
       52.59929       47.80558820        0.55149210
       52.69898       41.61094203        0.56434557
       52.79867       36.93248115        0.44852476
       52.89837       33.24609999        0.40968923
       52.99806       31.34338949        0.40379161
       53.09775       30.49110683        0.40977203
       53.19745       30.89315674        0.47172497
       53.29714       29.01307314        0.40376151
       53.39683       30.05827100        0.42814537
       53.49653       30.62763687        0.43589723
       53.59622       29.88443163        0.43055033
       53.69591       29.72823081        0.47204788
       53.79561       29.23449062        0.39153374
       53.89530       29.40632412        0.38730013
       53.99499       28.21366439        0.38586377
       54.09469       28.72407588        0.40842626
       54.19438       29.14705920        0.44827623
       54.29407       29.52845933        0.41685950
       54.39377       29.01668061        0.41646289
       54.49346       28.73438723        0.41523686
       54.59315       28.37045373        0.41904933
       54.69285       27.95436848        0.44325936
       54.79254       28.99100437        0.38667215
       54.89223       28.61697001        0.38067294
       54.99193       27.47291334        0.38449664
       55.09162       28.75948084        0.41110205
       55.19131       28.56597691        0.44136501
       55.29101       27.82579922        0.40536115
       55.39070       28.08361575        0.41969179
       55.49039       27.96786652        0.41614932
       55.59009       27.44830526        0.42491097
       55.68978       28.25870109        0.44154726
       55.78948       28.08199099        0.38402134
       55.88917       29.49907310        0.39453495
       55.98886       31.51557050        0.41194770
       56.08856       33.16506427        0.43707993
       56.18825       35.93196381        0.49197784
       56.28794       39.43073316        0.47092960
       56.38764       43.17101408        0.50908263
       56.48733       45.31439284        0.52803036
       56.58702       47.93115524        0.55839273
       56.68672       49.37854591        0.58541373
       56.78641       51.43402645        0.51626852
       56.88610       50.12302865        0.51470239
       56.98580       47.61552010        0.50176190
       57.08549       44.32429769        0.51340773
       57.18518       41.83034378        0.51654486
       57.28488       38.17372123        0.45824718
       57.38457       34.43605042        0.46057089
       57.48426       31.02282550        0.44615768
       57.58396       29.90220428        0.45028448
       57.68365       28.37421244        0.44431449
       57.78334       28.35015262        0.38848968
       57.88304       27.30294134        0.38560649
       57.98273       26.37173080        0.38444802
       58.08242       27.63732548        0.42398771
       58.18212       27.59194269        0.43213311
       58.28181       27.45305149        0.40439719
       58.38150       27.18212250        0.42391972
       58.48120       27.71308527        0.43879382
       58.58089       29.49604781        0.45893659
       58.68058       30.65567037        0.45787373
       58.78028       32.85897691        0.41367562
       58.87997       38.06023290        0.43732667
       58.97966       43.48473746        0.48401123
       59.07936       52.39631600        0.56711482
       59.17905       58.85939123        0.61056876
       59.27874       67.44604084        0.62337198
       59.37844       70.88032218        0.66109091
       59.47813       71.75331041        0.69293384
       59.57782       69.20388151        0.70993951
       59.67752       65.13838511        0.64009520
       59.77721       55.88667783        0.54337413
       59.87690       45.09750977        0.48298934
       59.97660       38.45457493        0.46707266
       60.07629       33.52507091        0.47282451
       60.17598       29.90854219        0.42787701
       60.27568       28.52300670        0.40553307
       60.37537       27.92687719        0.40839613
       60.47507       26.71220983        0.41498751
       60.57476       26.32092884        0.45212652
       60.67445       26.80402758        0.39046414
       60.77415       26.21035346        0.36657409
       60.87384       26.05668607        0.36073089
       60.97353       26.46623424        0.38404543
       61.07323       25.58029304        0.42550971
       61.17292       26.00922756        0.37087939
       61.27261       25.62073432        0.38026641
       61.37231       25.58548209        0.39308201
       61.47200       25.38035925        0.40738155
       61.57169       24.63806929        0.45631649
       61.67139       24.89548496        0.37464011
       61.77108       24.57130073        0.36467187
       61.87077       26.12263514        0.37345493
       61.97047       24.93259671        0.37806214
       62.07016       25.25608218        0.43079533
       62.16985       25.73947194        0.38098750
       62.26955       25.33601994        0.39230652
       62.36924       24.14659506        0.39573522
       62.46893       25.37605913        0.42128662
       62.56863       25.54134492        0.47548826
       62.66832       25.41184643        0.38503631
       62.76801       25.93298556        0.37901131
       62.86771       25.11066173        0.36413760
       62.96740       24.06469582        0.36609607
       63.06709       25.13941579        0.41702404
       63.16679       24.41911841        0.36251282
       63.26648       24.54957010        0.37548089
       63.36617       25.23377889        0.39727387
       63.46587       25.91102612        0.41690162
       63.56556       26.35354651        0.44793451
       63.66525       25.66296234        0.37381287
       63.76495       24.68630709        0.35583318
       63.86464       24.86738075        0.35494390
       63.96433       25.36121046        0.37473050
       64.06403       25.28232073        0.39936407
       64.16372       25.48748661        0.37276787
       64.26341       26.22037601        0.39654899
       64.36311       24.91342353        0.39436440
       64.46280       26.19639105        0.42707654
       64.56249       26.29459416        0.43447611
       64.66219       25.82301265        0.37609910
       64.76188       25.51268306        0.36824455
       64.86157       25.93599617        0.36936896
       64.96127       26.17384751        0.39043109
       65.06096       26.61621551        0.42759324
       65.16066       27.76100869        0.39618054
       65.26035       26.80882661        0.39714251
       65.36004       27.75889912        0.42057705
       65.45974       27.74910620        0.43389979
       65.55943       28.99887928        0.46350425
       65.65912       28.12802482        0.39519118
       65.75882       29.78672526        0.40301561
       65.85851       30.75241142        0.40994821
       65.95820       33.75539610        0.45274554
       66.05790       35.26601490        0.47857608
       66.15759       38.14258000        0.47302863
       66.25728       41.48354039        0.50797663
       66.35698       45.51998673        0.55304903
       66.45667       51.99873617        0.62769760
       66.55636       57.63314986        0.65860346
       66.65606       68.42887502        0.63884689
       66.75575       88.38513205        0.71705749
       66.85544      124.25718291        0.84981172
       66.95514      177.52749891        1.06671944
       67.05483      242.86919472        1.27009065
       67.15452      334.13333581        1.43956649
       67.25422      438.59443464        1.75855721
       67.35391      534.87680799        2.06505132
       67.45360      613.86137525        2.37619606
       67.55330      674.81954298        2.42998277
       67.65299      745.86231823        2.33325159
       67.75268      774.34135425        2.35880064
       67.85238      755.25918299        2.34539595
       67.95207      692.90124737        2.37395767
       68.05176      616.21027897        2.08999643
       68.15146      498.88386955        1.81817395
       68.25115      399.90325352        1.69784988
       68.35084      323.14558849        1.58034642
       68.45054      263.75888779        1.56294184
       68.55023      207.62297828        1.18180164
       68.64992      145.06325730        0.90523127
       68.74962       96.63084417        0.73802373
       68.84931       69.61993315        0.63141851
       68.94900       56.48842020        0.64114944
       69.04870       45.72251680        0.48405547
       69.14839       38.41201250        0.45934802
       69.24808       34.85344298        0.47151225
       69.34778       32.03875409        0.46581569
       69.44747       31.16785294        0.53067046
       69.54716       29.94630590        0.40527905
       69.64686       28.95612178        0.39212002
       69.74655       27.92589391        0.38700798
       69.84625       27.53806712        0.39332320
       69.94594       27.69955739        0.44524707
       70.04563       27.52347760        0.36835423
       70.14533       27.17859727        0.38199328
       70.24502       26.17177085        0.40024175
       70.34471       27.31400673        0.43229341
       70.44441       28.17612716        0.51576946
       70.54410       29.75392731        0.41453469
       70.64379       29.72857817        0.41175050
       70.74349       31.04671436        0.42709953
       70.84318       31.58916948        0.45120828
       70.94287       31.57575608        0.49797539
       71.04257       32.02202099        0.41394428
       71.14226       31.48077509        0.42511738
       71.24195       31.50314349        0.44661952
       71.34165       31.27722704        0.46977110
       71.44134       30.22564272        0.51394644
       71.54103       29.08451512        0.41016465
       71.64073       27.84442275        0.39359623
       71.74042       27.12755210        0.38422921
       71.84011       26.12136804        0.39091660
       71.93981       26.01585657        0.42429365
       72.03950       26.12070047        0.35848995
       72.13919       25.20222947        0.36681568
       72.23889       24.09076983        0.37259483
       72.33858       23.87717086        0.41331119
       72.43827       22.78551699        0.44372838
       72.53797       23.06844053        0.36372417
       72.63766       23.98428870        0.36401336
       72.73735       24.13580339        0.35605414
       72.83705       23.85044595        0.37279487
       72.93674       23.91705801        0.39612153
       73.03643       25.61490353        0.35454760
       73.13613       26.29813456        0.37727794
       73.23582       27.94412232        0.41013756
       73.33551       28.24582479        0.45688795
       73.43521       28.83292698        0.50138001
       73.53490       31.06063466        0.41974054
       73.63459       31.30341070        0.41442814
       73.73429       33.26541588        0.42408403
       73.83398       34.41083632        0.45673076
       73.93367       35.17303237        0.48546744
       74.03337       35.36385213        0.42888006
       74.13306       35.03762717        0.44963929
       74.23275       33.61392538        0.46032310
       74.33245       33.73959159        0.50691794
       74.43214       31.54111076        0.50605014
       74.53184       30.81422329        0.42447316
       74.63153       29.33332524        0.41081940
       74.73122       27.84584757        0.39717764
       74.83092       24.79627567        0.39597902
       74.93061       24.45062820        0.39812251
       75.03030       24.08540860        0.35632366
       75.13000       23.13595549        0.36109943
       75.22969       22.33193269        0.36967117
       75.32938       22.41232841        0.40568725
       75.42908       22.11997017        0.40814287
       75.52877       21.23800329        0.34678486
       75.62846       20.91130565        0.34177870
       75.72816       21.59007910        0.34749364
       75.82785       21.74966110        0.37786603
       75.92754       21.34547688        0.35393213
       76.02724       21.83909254        0.33402228
       76.12693       21.27657869        0.34290830
       76.22662       20.84921364        0.35812568
       76.32632       21.12090129        0.40703066
       76.42601       21.21603186        0.38176717
       76.52570       21.30290229        0.35179494
       76.62540       21.00364900        0.34893726
       76.72509       21.98953846        0.35407747
       76.82478       21.65676834        0.40545244
       76.92448       21.09724800        0.31798668
       77.02417       21.45942443        0.33171253
       77.12386       21.28302372        0.34631342
       77.22356       21.06303892        0.36543193
       77.32325       20.18199765        0.43731723
       77.42294       20.62673697        0.35393609
       77.52264       21.12118962        0.35152162
       77.62233       21.02025310        0.34892670
       77.72202       21.25589304        0.35008345
       77.82172       20.71591345        0.40371932
       77.92141       20.81404567        0.31023622
       78.02110       21.07139614        0.33605639
       78.12080       20.46689981        0.35125511
       78.22049       20.20229149        0.37112836
       78.32018       20.88524721        0.43955851
       78.41988       20.37879277        0.34316588
       78.51957       20.88278870        0.35793942
       78.61926       20.61920107        0.35323257
       78.71896       20.95992127        0.35682132
       78.81865       20.90571253        0.39706107
       78.91834       19.98804769        0.29930970
       79.01804       20.57878659        0.33442044
       79.11773       21.09148859        0.35479195
       79.21743       21.32263794        0.38134761
       79.31712       21.64457181        0.43266032
       79.41681       22.02605414        0.35197844
       79.51651       22.25365130        0.36008229
       79.61620       22.90172797        0.36564871
       79.71589       24.05985757        0.38831044
       79.81559       24.41068841        0.41333483
       79.91528       26.71799107        0.36762136
       80.01497       28.56522686        0.39619520
       80.11467       30.12338551        0.42392984
       80.21436       30.26364592        0.45341606
       80.31405       31.22691217        0.54691317
       80.41375       31.65064368        0.42135794
       80.51344       31.67134350        0.41949923
       80.61313       31.27464770        0.42804118
       80.71283       30.87099481        0.44192820
       80.81252       31.15453974        0.50030091
       80.91221       30.54826517        0.36959400
       81.01191       27.51119973        0.37570422
       81.11160       25.16779552        0.38690473
       81.21129       23.70205119        0.40535384
       81.31099       22.42329730        0.43899271
       81.41068       22.32332322        0.34109474
       81.51037       21.40746993        0.34257465
       81.61007       22.08281883        0.36757295
       81.70976       21.21369818        0.37333824
       81.80945       20.83414709        0.39346707
       81.90915       20.71535213        0.29887190
       82.00884       20.72856365        0.31997652
       82.10853       20.28652037        0.35266447
       82.20823       20.39354437        0.39115051
       82.30792       20.43514858        0.40940972
       82.40761       21.53046926        0.34351490
       82.50731       20.94149272        0.34271182
       82.60700       20.85591259        0.36626019
       82.70669       21.19386748        0.40208820
       82.80639       20.69106024        0.37859140
       82.90608       21.01646710        0.30923032
       83.00577       20.93679523        0.32646446
       83.10547       20.73952202        0.38154652
       83.20516       20.18005144        0.42162304
       83.30485       21.59235283        0.41685955
       83.40455       21.05540264        0.34347360
       83.50424       21.73820345        0.33880775
       83.60393       21.92621815        0.37466405
       83.70363       22.52365418        0.42687690
       83.80332       22.60815659        0.37424786
       83.90302       22.93751068        0.31511220
       84.00271       23.47912739        0.33186153
       84.10240       25.12587599        0.41573262
       84.20210       25.75914259        0.51138564
       84.30179       25.43325270        0.41324424
       84.40148       25.19928711        0.36126824
       84.50118       24.68132052        0.35108735
       84.60087       24.71223646        0.39594085
       84.70056       25.09085257        0.51893942
       84.80026       24.67272973        0.35950179
       84.89995       24.27084765        0.32182717
       84.99964       23.34900374        0.32850875
       85.09934       22.60243256        0.38082008
       85.19903       22.43296846        0.64962727
       85.29872       21.12814845        0.33160088
       85.39842       21.49245999        0.33995267
       85.49811       20.59113512        0.32321062
       85.59780       19.54541342        0.35266763
       85.69750       18.66163470        0.61974064
       85.79719       20.47423835        0.31014173
       85.89688       20.58782962        0.30375007
       85.99658       20.56456474        0.31076145
       86.09627       19.97465008        0.35094456
       86.19596       20.06146894        0.67870610
       86.29566       20.05982823        0.31945384
       86.39535       19.92049715        0.32170298
       86.49504       20.34455870        0.31999731
       86.59474       21.16330602        0.35288720
       86.69443       20.99226854        0.73632340
       86.79412       20.95664855        0.30621415
       86.89382       21.63446101        0.30308442
       86.99351       21.56367165        0.31416825
       87.09320       21.64262012        0.34904039
       87.19290       23.17270788        0.85710822
       87.29259       22.55473891        0.34039426
       87.39228       23.23706033        0.35393519
       87.49198       22.72279532        0.34288294
       87.59167       22.49524314        0.34527307
       87.69136       23.62816871        1.05874284
       87.79106       22.04253365        0.31701103
       87.89075       21.62815051        0.31146200
       87.99044       21.30384723        0.31993918
       88.09014       21.53711042        0.34166379
       88.18983       21.32384821        1.80931025
       88.28953       21.69780926        0.34934522
       88.38922       21.00519176        0.34699519
       88.48891       20.17707053        0.32469863
       88.58861       20.38036368        0.31501862
       88.68830       22.48787833        2.59401673
       88.78799       20.22821434        0.30279076
       88.88769       19.78223902        0.29096344
       88.98738       20.06970302        0.30593935
       89.08707       20.64494175        0.32118501
       89.18677       20.74357173        2.62348896
       89.28646       20.84475556        0.32700083
       89.38615       20.51415738        0.32554128
       89.48585       20.86000383        0.32208849
       89.58554       20.49616827        0.31146521
       89.68523       19.67021112        2.46564351
       89.78493       19.67979161        0.29471927
       89.88462       20.13206935        0.29552230
       89.98431       19.64724578        0.30127448
       90.08401       20.51779337        0.31675514
       90.18370       19.85134987        2.57868817
       90.28339       20.37593499        0.32195870
       90.38309       20.34921686        0.32672486
       90.48278       20.37157062        0.31958438
       90.58247       19.92815635        0.31096397
       90.68217       24.94563477        2.74965081
       90.78186       21.39257758        0.31260708
       90.88155       20.80788998        0.30058123
       90.98125       21.30231095        0.31263005
       91.08094       21.29256656        0.32255854
       91.18063       18.59293216        2.40159164
       91.28033       22.04792743        0.33732947
       91.38002       21.54367108        0.34057313
       91.47971       21.76373382        0.33404974
       91.57941       23.01478298        0.33720948
       91.67910       21.72016522        2.48100401
       91.77879       23.93853596        0.32945731
       91.87849       24.47061826        0.32623636
       91.97818       26.76532471        0.35444049
       92.07787       29.23647797        0.38445749
       92.17757       32.24964637        3.06819598
       92.27726       33.36257182        0.42331703
       92.37695       38.41420746        0.46942182
       92.47665       43.68911449        0.48149451
       92.57634       55.00076529        0.52100589
       92.67603       68.34113390        3.80517284
       92.77573       71.17114511        0.57269485
       92.87542       96.30450866        0.65547185
       92.97512      126.71131042        0.78725629
       93.07481      153.93961832        0.99439844
       93.17450      162.08350667        1.92764066
       93.27420      184.96973740        1.02243859
       93.37389      209.35390168        1.06309564
       93.47358      229.03216328        1.12210406
       93.57328      253.09948751        1.37155738
       93.67297      261.37517579        1.88231060
       93.77266      279.34003068        1.20946350
       93.87236      297.82010625        1.18940507
       93.97205      315.30309462        1.29279489
       94.07174      324.28814751        1.71826793
       94.17144      328.78236938        1.97853372
       94.27113      320.92642669        1.44368101
       94.37082      307.00930395        1.36470247
       94.47052      286.93024566        1.26225364
       94.57021      266.68246611        1.59904416
       94.66990      254.04215372        1.57099534
       94.76960      233.70985788        1.16143674
       94.86929      214.00810230        1.01737239
       94.96898      191.48436693        0.97253593
       95.06868      168.20130866        1.04112595
       95.16837      158.79969397        1.37834167
       95.26806      143.98153284        1.01065822
       95.36776      127.20574478        0.85785971
       95.46745      108.88107884        0.75932245
       95.56714       89.61234124        0.78677279
       95.66684       82.27276320        0.85169247
       95.76653       72.52809464        0.66323836
       95.86622       57.14536750        0.49958657
       95.96592       44.36458704        0.45263803
       96.06561       39.92108177        0.54957541
       96.16530       38.97635511        0.57630428
       96.26500       35.90287365        0.49678088
       96.36469       33.61923251        0.42852757
       96.46438       32.76863806        0.41152264
       96.56408       32.47643918        0.51160875
       96.66377       31.85063052        0.49206277
       96.76346       31.34692694        0.43484766
       96.86316       31.44994898        0.37583998
       96.96285       32.70721127        0.39549938
       97.06254       33.17834243        0.53688650
       97.16224       33.61601732        0.51721301
       97.26193       32.67783763        0.47680697
       97.36162       33.43406671        0.45141423
       97.46132       33.67122863        0.42084770
       97.56101       33.98019698        0.53393851
       97.66071       33.12193987        0.47161181
       97.76040       32.21583310        0.42270577
       97.86009       32.00061683        0.37970265
       97.95979       29.59180886        0.37089830
       98.05948       29.22462216        0.51543821
       98.15917       28.91236061        0.45781642
       98.25887       29.75540499        0.44635992
       98.35856       27.62790050        0.40410834
       98.45825       26.74864542        0.36961515
       98.55795       26.58457214        0.48075971
       98.65764       24.44669450        0.39487220
       98.75733       24.02284619        0.36392079
       98.85703       23.46522654        0.33523488
       98.95672       22.92058688        0.33250618
       99.05641       23.33189359        0.46784526
       99.15611       22.70215190        0.39579971
       99.25580       23.10220703        0.38511211
       99.35549       23.34316028        0.36784817
       99.45519       22.48001421        0.33603268
       99.55488       22.41410105        0.44786419
       99.65457       21.79006875        0.36365333
       99.75427       22.91741587        0.34931858
       99.85396       22.67350843        0.33473185
       99.95365       23.24095394        0.33221417
      100.05335       22.43940428        0.46260989
      100.15304       22.09456953        0.38549983
      100.25273       22.21971185        0.38209151
      100.35243       21.92021717        0.37668322
      100.45212       21.42251262        0.33962181
      100.55181       21.49280379        0.44777379
      100.65151       21.17141914        0.36340373
      100.75120       21.85217354        0.34378272
      100.85089       21.37902507        0.32421985
      100.95059       21.08923134        0.31278084
      101.05028       20.51252019        0.43999910
      101.14997       20.96053072        0.36650210
      101.24967       21.39455368        0.36488760
      101.34936       21.01923065        0.36321072
      101.44905       20.76721018        0.34239182
      101.54875       19.82032299        0.42025692
      101.64844       20.87701288        0.35100229
      101.74813       20.70879581        0.32784029
      101.84783       20.25340519        0.31421607
      101.94752       19.83912008        0.32757894
      102.04721       19.82875618        0.39355468
      102.14691       19.19247055        0.34849254
      102.24660       19.82277496        0.35130392
      102.34630       19.95894403        0.35518387
      102.44599       20.23631973        0.36287102
      102.54568       19.83084250        0.37598795
      102.64538       19.77456610        0.33474466
      102.74507       19.83742085        0.31844558
      102.84476       19.95601750        0.31287405
      102.94446       19.14742333        0.34752757
      103.04415       19.74824758        0.37703129
      103.14384       19.33382581        0.34955660
      103.24354       20.18505930        0.35228519
      103.34323       20.00596042        0.34722569
      103.44292       19.44052593        0.37032314
      103.54262       19.72583132        0.36209752
      103.64231       19.37799992        0.32581023
      103.74200       19.44707602        0.31077686
      103.84170       19.60432526        0.30594838
      103.94139       19.68188550        0.37232111
      104.04108       19.19351159        0.35604807
      104.14078       19.68251521        0.34927808
      104.24047       19.17583210        0.34382327
      104.34016       19.07089874        0.34434171
      104.43986       18.64906089        0.38775294
      104.53955       18.80647320        0.35107115
      104.63924       20.08126376        0.34027549
      104.73894       19.80980633        0.32479160
      104.83863       20.23089261        0.31863063
      104.93832       19.03909494        0.37420559
      105.03802       20.07144407        0.36071293
      105.13771       19.94947141        0.34598953
      105.23740       19.28179212        0.33879941
      105.33710       20.39889511        0.34933157
      105.43679       19.19000355        0.39434327
      105.53648       19.94390133        0.36172536
      105.63618       19.99123837        0.33311598
      105.73587       20.39764599        0.32192201
      105.83556       20.26458834        0.31196998
      105.93526       20.24628435        0.39442093
      106.03495       20.16737336        0.35648497
      106.13464       19.22564049        0.33586123
      106.23434       20.04241214        0.34498460
      106.33403       20.24658762        0.35050029
      106.43372       20.49409935        0.42179392
      106.53342       20.30594538        0.36574655
      106.63311       20.19292600        0.33162109
      106.73280       20.30850897        0.31585912
      106.83250       20.11536540        0.30891596
      106.93219       19.93503729        0.39796004
      107.03189       19.99369191        0.35317931
      107.13158       20.50793958        0.34648281
      107.23127       19.09721232        0.34046747
      107.33097       19.73502652        0.34631436
      107.43066       20.28962097        0.42310533
      107.53035       19.44131831        0.35591160
      107.63005       19.54221686        0.32469988
      107.72974       19.11526908        0.30765177
      107.82943       19.82188088        0.30891749
      107.92913       20.03130169        0.41050965
      108.02882       19.83568719        0.35810501
      108.12851       19.99681310        0.34371380
      108.22821       19.46859576        0.33431229
      108.32790       20.37364917        0.33765684
      108.42759       19.65036879        0.42040633
      108.52729       19.59375311        0.35594899
      108.62698       20.07049756        0.32570582
      108.72667       20.41784506        0.31490015
      108.82637       20.45228167        0.32290130
      108.92606       20.99099886        0.41646904
      109.02575       21.92930708        0.37247952
      109.12545       21.40313056        0.35832421
      109.22514       22.32701954        0.36508758
      109.32483       22.37204338        0.39742408
      109.42453       23.59531231        0.43037888
      109.52422       23.33493893        0.38607933
      109.62391       24.45419615        0.37557404
      109.72361       24.55317156        0.36035680
      109.82330       25.88150334        0.34818835
      109.92299       24.92291790        0.44425856
      110.02269       26.05926626        0.39619496
      110.12238       25.72646761        0.39074054
      110.22207       25.98270573        0.38931873
      110.32177       27.01501138        0.40476766
      110.42146       26.65728626        0.48725024
      110.52115       26.42005071        0.41269347
      110.62085       28.04937808        0.40255988
      110.72054       28.23645288        0.37924102
      110.82023       27.58708006        0.38575785
      110.91993       28.19102770        0.45310928
      111.01962       27.62359902        0.41435733
      111.11931       27.03197245        0.41176230
      111.21901       25.50508973        0.39183918
      111.31870       27.06462391        0.43730840
      111.41839       25.86549219        0.44495912
      111.51809       25.32291439        0.40161334
      111.61778       25.25739960        0.37765236
      111.71748       24.10649200        0.34187471
      111.81717       23.37638692        0.36432864
      111.91686       22.39248971        0.37471136
      112.01656       22.83375558        0.36947895
      112.11625       22.22599148        0.36673940
      112.21594       22.68604787        0.36979715
      112.31564       21.82646330        0.40197853
      112.41533       22.00808768        0.39635616
      112.51502       21.26678104        0.35812158
      112.61472       21.38795040        0.34221630
      112.71441       21.19013269        0.32075626
      112.81410       20.30380882        0.35092036
      112.91380       20.21046465        0.35622449
      113.01349       20.28503391        0.35008587
      113.11318       20.80518224        0.35484795
      113.21288       19.97823139        0.34710326
      113.31257       20.94692821        0.39283078
      113.41226       19.64539112        0.36069500
      113.51196       19.56931590        0.33846131
      113.61165       19.53471144        0.32635784
      113.71134       19.28196867        0.30877608
      113.81104       19.19558974        0.35300339
      113.91073       19.03119606        0.34265374
      114.01042       20.23857051        0.35046714
      114.11012       19.73015240        0.34542284
      114.20981       20.13824419        0.35049652
      114.30950       18.84535200        0.38409239
      114.40920       19.83880815        0.36386680
      114.50889       19.16862463        0.33476262
      114.60858       19.28502788        0.32564096
      114.70828       19.44873696        0.31598032
      114.80797       19.48674314        0.36049243
      114.90766       19.70627122        0.34121526
      115.00736       19.34104711        0.33573391
      115.10705       19.11721514        0.33483002
      115.20674       19.49528140        0.34343170
      115.30644       18.32648311        0.38132905
      115.40613       18.68018612        0.34918762
      115.50582       18.35088516        0.32742576
      115.60552       20.04832835        0.33148321
      115.70521       19.71441639        0.31640988
      115.80490       20.15859469        0.37232921
      115.90460       19.29002155        0.32941020
      116.00429       19.02961934        0.33101074
      116.10399       19.62837543        0.33837844
      116.20368       19.39162093        0.34377414
      116.30337       19.21591356        0.40877130
      116.40307       19.96606384        0.36431246
      116.50276       19.84858777        0.34407733
      116.60245       20.11819978        0.33303734
      116.70215       19.46441535        0.31559830
      116.80184       19.73637447        0.37702198
      116.90153       19.76495883        0.33961691
      117.00123       19.96628622        0.33832682
      117.10092       20.56343969        0.35241073
      117.20061       19.53290344        0.34861789
      117.30031       21.13694731        0.43618697
      117.40000       20.28390980        0.35787417
      117.49969       20.18193782        0.33883098
      117.59939       20.47309443        0.32565872
      117.69908       20.97090248        0.31909838
      117.79877       20.83925208        0.39005442
      117.89847       20.98587076        0.33988024
      117.99816       21.88383704        0.35219686
      118.09785       23.18550515        0.37142057
      118.19755       23.50476021        0.39069204
      118.29724       24.50572613        0.43487912
      118.39693       25.55250621        0.40515681
      118.49663       26.30417962        0.38667841
      118.59632       28.75974500        0.38930278
      118.69601       31.13517659        0.42351700
      118.79571       32.35205647        0.46713129
      118.89540       36.19400713        0.46220802
      118.99509       40.20715393        0.48761719
      119.09479       44.34330404        0.51644139
      119.19448       49.88424048        0.59717850
      119.29417       53.43777297        0.64311588
      119.39387       60.18995993        0.62902720
      119.49356       70.85308052        0.64322414
      119.59325       82.33675675        0.67617853
      119.69295       95.90566924        0.77402161
      119.79264      107.63226563        0.83234284
      119.89233      120.85748631        0.85681754
      119.99203      134.72111129        0.88555268
      120.09172      149.35566730        0.95390029
      120.19141      159.82347789        1.10923865
      120.29111      170.33121733        1.13357915
      120.39080      180.82486822        1.11796466
      120.49049      192.56557298        1.07859386
      120.59019      203.83404135        1.08050474
      120.68988      214.18689412        1.19590858
      120.78958      220.45422083        1.18606584
      120.88927      232.79624105        1.20135579
      120.98896      235.21250644        1.19539277
      121.08866      243.30969885        1.22281683
      121.18835      250.06308121        1.42608634
      121.28804      256.01226439        1.40798825
      121.38774      260.62883688        1.34862029
      121.48743      264.64908969        1.28756591
      121.58712      267.06806989        1.23361577
      121.68682      262.04734553        1.34453784
      121.78651      264.69406094        1.29011585
      121.88620      260.80458687        1.26381988
      121.98590      254.28299840        1.25411890
      122.08559      246.59547967        1.25729139
      122.18528      243.16853378        1.45686309
      122.28498      231.17060856        1.33087952
      122.38467      218.18481189        1.23381715
      122.48436      204.44876758        1.12633840
      122.58406      188.67141435        1.02068412
      122.68375      173.33303667        1.10458710
      122.78344      159.96073425        0.99373955
      122.88314      148.00850816        0.94702336
      122.98283      133.12761366        0.91493194
      123.08252      123.47176639        0.87642577
      123.18222      112.57986806        0.97246448
      123.28191      103.88391016        0.84502744
      123.38160       93.46770175        0.77222278
      123.48130       85.37057424        0.70923072
      123.58099       77.09834324        0.62847361
      123.68068       68.31466805        0.67364811
      123.78038       63.19119135        0.58439534
      123.88007       57.02443372        0.54436697
      123.97976       50.74097166        0.52114543
      124.07946       46.84296039        0.49459605
      124.17915       41.99045307        0.52674345
      124.27884       39.31366723        0.45606366
      124.37854       34.60210880        0.40205909
      124.47823       31.77715288        0.37687317
      124.57792       27.73825385        0.37488193
