        5.04553       35.20057217        0.93732576
        5.14523       34.80898111        0.89176940
        5.24492       36.24812897        0.89775330
        5.34461       35.54366694        0.81828637
        5.44431       34.24383350        0.87824919
        5.54400       34.47567759        0.73454091
        5.64369       35.31312562        0.74721567
        5.74339       36.56288353        0.68164441
        5.84308       34.82294181        0.67304089
        5.94277       35.84743633        0.68125230
        6.04247       35.11554235        0.65393876
        6.14216       35.96823362        0.60937213
        6.24185       35.27701281        0.62180463
        6.34155       35.41429393        0.59442706
        6.44124       34.78161871        0.62094491
        6.54093       35.50532579        0.59494817
        6.64063       35.40402118        0.56310601
        6.74032       33.46815250        0.54728090
        6.84001       35.59343138        0.56143308
        6.93971       35.73693955        0.56745407
        7.03940       35.28999216        0.52524763
        7.13909       35.35708489        0.52341353
        7.23879       34.36454490        0.50861290
        7.33848       34.96895574        0.52104679
        7.43817       35.89820156        0.51688535
        7.53787       34.59690796        0.50073051
        7.63756       35.15696182        0.48145930
        7.73725       35.30711160        0.50166462
        7.83695       34.74781064        0.48140892
        7.93664       35.57368734        0.50823272
        8.03633       35.29244798        0.45576726
        8.13603       34.90924785        0.44795819
        8.23572       35.05579863        0.45773815
        8.33541       34.47371732        0.44935536
        8.43511       35.49313789        0.48253101
        8.53480       35.08625832        0.44449833
        8.63449       35.99702117        0.44615516
        8.73419       34.96949900        0.42923393
        8.83388       36.28510296        0.43982112
        8.93357       36.34680634        0.43921994
        9.03327       36.17022953        0.42670601
        9.13296       35.50146508        0.42049840
        9.23265       35.55580052        0.42604021
        9.33235       36.18704529        0.44248794
        9.43204       36.20560313        0.44088444
        9.53174       35.42755854        0.41901855
        9.63143       36.71984362        0.44101845
        9.73112       36.17686035        0.43775119
        9.83082       36.72961237        0.46028106
        9.93051       37.36010458        0.45736965
       10.03020       36.26309132        0.43547100
       10.12990       36.27373479        0.42511885
       10.22959       37.40100948        0.44930320
       10.32928       37.93494788        0.47147694
       10.42898       38.62913443        0.46970763
       10.52867       38.03271324        0.45072510
       10.62836       37.75888867        0.44897131
       10.72806       38.15444001        0.45696735
       10.82775       38.43693328        0.45754832
       10.92744       37.49394054        0.45852695
       11.02714       38.44875403        0.44360682
       11.12683       38.40644734        0.45826797
       11.22652       39.23047434        0.46866464
       11.32622       38.21043212        0.47463864
       11.42591       39.80738168        0.46762916
       11.52560       39.25696033        0.45910629
       11.62530       40.25769573        0.46915879
       11.72499       39.38058428        0.47232301
       11.82468       40.72911532        0.49346412
       11.92438       40.14563573        0.46545476
       12.02407       39.70457029        0.45765538
       12.12376       40.80145665        0.46683274
       12.22346       40.41333239        0.49294883
       12.32315       41.30798373        0.50332908
       12.42284       41.32754529        0.48001686
       12.52254       42.25125730        0.48159148
       12.62223       41.01594962        0.48751806
       12.72192       42.77725588        0.48388256
       12.82162       41.36040722        0.51384386
       12.92131       42.68790441        0.47938270
       13.02100       42.33530056        0.47176037
       13.12070       43.41650966        0.48573338
       13.22039       43.34452222        0.49952742
       13.32008       42.87070195        0.51563286
       13.41978       43.71116893        0.49504119
       13.51947       43.89287203        0.50529407
       13.61916       44.38441308        0.49063123
       13.71886       45.18019024        0.51918724
       13.81855       46.28854766        0.53356773
       13.91824       46.66205289        0.50422207
       14.01794       46.85429254        0.49427436
       14.11763       48.47516394        0.52084639
       14.21733       48.72851345        0.52481130
       14.31702       49.71284925        0.55685876
       14.41671       50.12418309        0.54236872
       14.51641       51.30127026        0.53372690
       14.61610       52.59614703        0.54323153
       14.71579       53.56662406        0.55834015
       14.81549       55.76156739        0.59779989
       14.91518       57.01890933        0.55285458
       15.01487       61.04510349        0.58288227
       15.11457       65.28537331        0.61051987
       15.21426       72.42336944        0.66348207
       15.31395       79.56486760        0.71473615
       15.41365       85.42167888        0.71746084
       15.51334      105.13837029        0.77509957
       15.61303      121.38163302        0.86039341
       15.71273      147.47008379        0.93656276
       15.81242      171.00335971        1.06254705
       15.91211      183.14902451        1.06330599
       16.01181      228.50977639        1.15173238
       16.11150      282.67758668        1.33334025
       16.21119      354.23428090        1.55632175
       16.31089      430.85555305        1.74325029
       16.41058      506.28126468        1.87588131
       16.51027      637.56464062        2.19157555
       16.60997      831.52941692        2.49216938
       16.70966     1046.79357630        2.96074889
       16.80935     1189.39758506        3.26056988
       16.90905     1369.49278428        3.47948086
       17.00874     1236.49396115        3.10978647
       17.10843      996.31967618        2.85742601
       17.20813      770.28184583        2.44298818
       17.30782      593.99169462        2.10037566
       17.40751      404.75151822        1.67552953
       17.50721      305.53552842        1.38440331
       17.60690      218.79157589        1.19029619
       17.70659      168.18832614        1.03806026
       17.80629      125.51823602        0.89962111
       17.90598       96.10327469        0.73209858
       18.00567       78.37040755        0.67060427
       18.10537       69.43446031        0.61296797
       18.20506       65.19097437        0.65006769
       18.30475       61.07679720        0.59970536
       18.40445       57.57432002        0.56616238
       18.50414       55.45928025        0.57362731
       18.60384       53.76296391        0.55557847
       18.70353       52.37789832        0.57994554
       18.80322       51.10337221        0.53880471
       18.90292       50.08060331        0.52793193
       19.00261       48.97672486        0.50610159
       19.10230       48.48471282        0.53663101
       19.20200       47.16164818        0.54145715
       19.30169       46.79029934        0.51992836
       19.40138       45.51239791        0.50795368
       19.50108       45.35719904        0.51862188
       19.60077       43.55431646        0.50295394
       19.70046       43.32228837        0.52569343
       19.80016       43.50567794        0.49887450
       19.89985       42.99444239        0.48138642
       19.99954       41.70541174        0.47871707
       20.09924       42.09650101        0.48689121
       20.19893       41.45001220        0.51642615
       20.29862       41.71293387        0.49075387
       20.39832       40.68219341        0.50004537
       20.49801       40.52262617        0.48951819
       20.59770       40.61344243        0.50008228
       20.69740       39.86729317        0.51295627
       20.79709       39.36428970        0.48533737
       20.89678       38.34388016        0.46681339
       20.99648       37.82513566        0.47119011
       21.09617       37.33396567        0.48870268
       21.19586       37.25596942        0.48795634
       21.29556       37.32519780        0.47727139
       21.39525       36.33770158        0.47152894
       21.49494       36.59756878        0.46496783
       21.59464       35.93802618        0.47070206
       21.69433       35.75257338        0.48882286
       21.79402       36.48458828        0.45087185
       21.89372       36.37561893        0.44104600
       21.99341       35.77040956        0.45584138
       22.09310       35.79518362        0.45794761
       22.19280       34.39130887        0.47589137
       22.29249       34.38594565        0.44404885
       22.39218       35.14870721        0.45887510
       22.49188       34.43333095        0.45465917
       22.59157       34.26243291        0.45938779
       22.69126       34.00490622        0.48091634
       22.79096       34.96174143        0.44066696
       22.89065       35.10661869        0.43148576
       22.99034       34.54102223        0.43972645
       23.09004       34.52939331        0.45918136
       23.18973       34.78837947        0.46011668
       23.28943       33.76988710        0.44658480
       23.38912       34.20136052        0.45399534
       23.48881       34.79113525        0.46026060
       23.58851       34.90711494        0.46690011
       23.68820       34.48561336        0.48866267
       23.78789       34.69209952        0.43641083
       23.88759       33.91355186        0.43757005
       23.98728       32.60629363        0.43772201
       24.08697       33.03755820        0.43206981
       24.18667       33.03721049        0.46336420
       24.28636       32.53345030        0.43614004
       24.38605       32.67589511        0.44660744
       24.48575       33.20746958        0.44959567
       24.58544       32.92925296        0.46129562
       24.68513       33.19937191        0.46332138
       24.78483       32.83645254        0.42461807
       24.88452       32.87406889        0.42384852
       24.98421       31.96802641        0.43223362
       25.08391       32.00243279        0.44145967
       25.18360       32.40527620        0.45386339
       25.28329       32.42876257        0.43766014
       25.38299       32.86147077        0.43927573
       25.48268       32.84696473        0.44178594
       25.58237       32.07829334        0.45417038
       25.68207       32.41894978        0.44741560
       25.78176       32.17478050        0.41895260
       25.88145       32.61847732        0.43311063
       25.98115       31.67462016        0.43129367
       26.08084       32.64368313        0.44875372
       26.18053       32.32194672        0.45873992
       26.28023       31.05244121        0.42540452
       26.37992       32.61916634        0.43643842
       26.47961       32.73651579        0.45159762
       26.57931       33.19098591        0.47457126
       26.67900       31.76248911        0.43431184
       26.77869       31.49620029        0.42939595
       26.87839       32.31212996        0.43030670
       26.97808       32.95829855        0.43186966
       27.07777       32.10257459        0.45912194
       27.17747       33.06244787        0.44491257
       27.27716       32.52151874        0.43006321
       27.37685       31.91763920        0.44265275
       27.47655       32.33612495        0.43864605
       27.57624       32.15675584        0.45698696
       27.67593       32.28641804        0.44845476
       27.77563       32.13293578        0.42830519
       27.87532       31.96220291        0.42004306
       27.97502       32.37343761        0.43126018
       28.07471       32.33149529        0.45674640
       28.17440       32.31422338        0.43676624
       28.27410       33.02686205        0.44069519
       28.37379       32.92975205        0.45060677
       28.47348       32.77218235        0.44658786
       28.57318       32.62961562        0.48271884
       28.67287       33.45390045        0.43586265
       28.77256       32.86061706        0.42398665
       28.87226       32.69828074        0.43332097
       28.97195       32.19041563        0.43152387
       29.07164       33.50500407        0.47934649
       29.17134       32.36878064        0.42910872
       29.27103       33.63373518        0.44459168
       29.37072       33.67472797        0.46318589
       29.47042       33.08871402        0.45246981
       29.57011       34.63127340        0.49002913
       29.66980       32.93730896        0.43561463
       29.76950       34.64933026        0.44670804
       29.86919       33.98826911        0.43351278
       29.96888       34.66818412        0.45790756
       30.06858       33.90032565        0.46745871
       30.16827       34.94349957        0.44908076
       30.26796       35.89007696        0.45571977
       30.36766       36.06562542        0.46616769
       30.46735       35.83070305        0.46862214
       30.56704       36.67689471        0.49895376
       30.66674       36.97228908        0.46768216
       30.76643       37.69213734        0.46111385
       30.86612       39.32170959        0.48086505
       30.96582       39.47049297        0.48528528
       31.06551       42.20668810        0.52657101
       31.16520       44.92391692        0.51103909
       31.26490       49.19775089        0.53100444
       31.36459       56.71772001        0.57912803
       31.46428       69.92933960        0.67202112
       31.56398       93.21764247        0.78853217
       31.66367      115.30025068        0.82342265
       31.76336      162.95707524        0.98885039
       31.86306      247.41395913        1.22625872
       31.96275      353.70092477        1.52846853
       32.06244      427.12334518        1.76145966
       32.16214      494.25792318        1.80140912
       32.26183      473.05600066        1.79891127
       32.36152      382.05285671        1.64851324
       32.46122      291.38674578        1.43625395
       32.56091      212.05511831        1.23023388
       32.66061      141.59306305        0.94338580
       32.76030      102.60253625        0.78017734
       32.85999       92.63066202        0.75132552
       32.95969      103.70633218        0.80483839
       33.05938      134.66154584        0.93906510
       33.15907      189.25902028        1.06127942
       33.25877      292.81912786        1.38674400
       33.35846      456.41064339        1.79319627
       33.45815      660.13490765        2.32266839
       33.55785      834.54175473        2.69387349
       33.65754     1051.30382935        2.91746465
       33.75723     1140.30498968        3.08174937
       33.85693     1031.63092034        2.89428780
       33.95662      875.85193219        2.67714539
       34.05631      720.13999831        2.34866386
       34.15601      570.71520333        1.99894451
       34.25570      466.90881335        1.77784040
       34.35539      362.46862384        1.57552797
       34.45509      268.93226797        1.40975781
       34.55478      195.61167590        1.11703217
       34.65447      123.60467723        0.84213560
       34.75417       85.48815777        0.70691844
       34.85386       65.46374220        0.60877786
       34.95355       56.21895458        0.58132539
       35.05325       50.11958968        0.56693035
       35.15294       47.39243342        0.51990262
       35.25263       45.59732581        0.51870169
       35.35233       44.34275358        0.52620706
       35.45202       42.95631888        0.54082462
       35.55171       40.53680079        0.51191211
       35.65141       39.39201293        0.48718773
       35.75110       38.67692757        0.47845789
       35.85079       37.12809282        0.46648390
       35.95049       36.75830518        0.47578840
       36.05018       36.08831237        0.46371895
       36.14987       35.96350590        0.44485079
       36.24957       34.83989451        0.45697714
       36.34926       34.55409688        0.46388551
       36.44895       33.67751225        0.46617879
       36.54865       33.68898812        0.44836482
       36.64834       32.09213717        0.42809863
       36.74803       33.48476126        0.44355916
       36.84773       31.34867830        0.42652941
       36.94742       32.03119257        0.46706426
       37.04711       31.47037768        0.40760266
       37.14681       31.27538477        0.41528458
       37.24650       31.05867314        0.42432699
       37.34620       31.21968459        0.43670708
       37.44589       30.69272996        0.46323766
       37.54558       30.04478784        0.41782409
       37.64528       29.41917408        0.41373554
       37.74497       30.11118474        0.41169880
       37.84466       29.69250512        0.43290733
       37.94436       30.09434304        0.44457496
       38.04405       30.74327846        0.40649796
       38.14374       30.30970051        0.40708278
       38.24344       30.09438332        0.41183390
       38.34313       30.74941828        0.43445035
       38.44282       31.13922349        0.47312956
       38.54252       32.32603522        0.43209571
       38.64221       32.35814277        0.43192099
       38.74190       34.26270793        0.44901393
       38.84160       38.10159528        0.47511168
       38.94129       43.09972348        0.53078924
       39.04098       50.70096861        0.51816154
       39.14068       58.74645638        0.58022478
       39.24037       63.53193619        0.60369743
       39.34006       62.10121630        0.61941514
       39.43976       58.66695401        0.65536195
       39.53945       51.91059183        0.55131432
       39.63914       41.95787640        0.49294752
       39.73884       36.40529700        0.46043718
       39.83853       31.96887738        0.42795020
       39.93822       31.08323651        0.44710365
       40.03792       29.45083148        0.39708037
       40.13761       29.71900401        0.40007114
       40.23730       30.72435051        0.42180160
       40.33700       29.74186732        0.42758233
       40.43669       29.94988543        0.44857922
       40.53638       31.44793207        0.42733670
       40.63608       31.06658829        0.43257896
       40.73577       31.53565409        0.43348118
       40.83546       31.53045297        0.43730702
       40.93516       31.80359134        0.44771431
       41.03485       32.58165089        0.42750490
       41.13454       31.13987998        0.41848808
       41.23424       30.29375916        0.42258630
       41.33393       29.99507105        0.43935996
       41.43362       30.27041395        0.45554794
       41.53332       29.80922148        0.42215563
       41.63301       30.41344404        0.43461903
       41.73270       30.22961222        0.42376202
       41.83240       31.19602198        0.44362098
       41.93209       31.42149881        0.44232747
       42.03179       32.88564016        0.41311007
       42.13148       33.58522481        0.43872073
       42.23117       36.25203899        0.45626069
       42.33087       40.90117182        0.51903236
       42.43056       51.54462953        0.57212622
       42.53025       63.75099969        0.61722015
       42.62995       92.47495003        0.75252791
       42.72964      132.40618199        0.91217706
       42.82933      180.13842145        1.09253860
       42.92903      224.27868050        1.18557103
       43.02872      255.30890833        1.20606081
       43.12841      247.33889741        1.20788689
       43.22811      207.26426012        1.15218528
       43.32780      162.87620568        1.06554186
       43.42749      120.69577401        0.89184235
       43.52719       81.37989036        0.69987225
       43.62688       55.79457817        0.57452368
       43.72657       42.34342106        0.51124861
       43.82627       36.65946744        0.49714133
       43.92596       33.15466615        0.42713120
       44.02565       31.36001875        0.41211641
       44.12535       31.50160905        0.42788351
       44.22504       29.68562523        0.43233245
       44.32473       29.37472932        0.45371740
       44.42443       28.01147388        0.42537474
       44.52412       29.24193427        0.42201644
       44.62381       28.53625665        0.42326144
       44.72351       27.71543373        0.40334021
       44.82320       27.89480075        0.45266635
       44.92289       28.31546017        0.37956398
       45.02259       27.82837567        0.37943276
       45.12228       27.22604289        0.38841609
       45.22197       27.34215269        0.39881448
       45.32167       27.75511260        0.44477048
       45.42136       26.88754284        0.39883710
       45.52105       27.28243222        0.39807558
       45.62075       26.22378226        0.39504731
       45.72044       26.62582338        0.39687525
       45.82013       26.01826962        0.42833532
       45.91983       26.71227629        0.37027395
       46.01952       26.58224045        0.37903609
       46.11921       26.56435408        0.37962002
       46.21891       26.29640431        0.39666310
       46.31860       25.99080260        0.42617596
       46.41830       25.11015422        0.38683273
       46.51799       25.38440861        0.38961746
       46.61768       25.52804700        0.38872274
       46.71738       25.50100357        0.39921859
       46.81707       25.83823138        0.41718574
       46.91676       26.01289128        0.36631424
       47.01646       26.35133809        0.37854990
       47.11615       26.07920578        0.38433682
       47.21584       25.90379939        0.39475304
       47.31554       26.14950055        0.43078677
       47.41523       26.25641050        0.40445852
       47.51492       26.12352808        0.40516850
       47.61462       25.89158235        0.40158953
       47.71431       25.56381686        0.40369500
       47.81400       26.19977988        0.42006389
       47.91370       25.74064822        0.36581653
       48.01339       25.19999095        0.36107355
       48.11308       25.41037068        0.37483201
       48.21278       25.09030972        0.38755865
       48.31247       24.89956568        0.39818108
       48.41216       24.60235738        0.37025333
       48.51186       24.83069368        0.38470966
       48.61155       24.55928814        0.38070828
       48.71124       25.26951926        0.39407423
       48.81094       24.81952669        0.38813989
       48.91063       25.04405402        0.34839268
       49.01032       24.60063805        0.35561751
       49.11002       24.86244983        0.37105083
       49.20971       23.72190711        0.38162058
       49.30940       24.89249555        0.40394275
       49.40910       25.80016470        0.39141624
       49.50879       24.44940889        0.38831581
       49.60848       24.07367126        0.38907864
       49.70818       25.26293311        0.41416823
       49.80787       24.81790553        0.39818844
       49.90756       24.59918357        0.35951957
       50.00726       25.21417662        0.37244374
       50.10695       25.24206259        0.38176057
       50.20664       26.52928766        0.41036737
       50.30634       25.74090527        0.42312793
       50.40603       26.15669996        0.39981969
       50.50572       26.08364826        0.39939749
       50.60542       26.74527139        0.40491654
       50.70511       26.99634034        0.41791313
       50.80480       27.11359268        0.41082783
       50.90450       26.36005467        0.36704050
       51.00419       27.55792505        0.38036429
       51.10389       28.45692909        0.39950846
       51.20358       30.31547717        0.43950982
       51.30327       33.68120768        0.46078578
       51.40297       37.63414059        0.46658030
       51.50266       45.94434723        0.51955767
       51.60235       59.69537755        0.60533043
       51.70205       78.46019720        0.74136180
       51.80174       97.38976450        0.76468498
       51.90143      121.07937103        0.80124902
       52.00113      139.40291528        0.86545863
       52.10082      148.83821064        0.92663348
       52.20051      144.74140846        1.00254413
       52.30021      135.09174826        0.92843779
       52.39990      118.13111958        0.84835437
       52.49959       96.98473523        0.77989237
       52.59929       80.41276709        0.72092574
       52.69898       65.40255302        0.71183195
       52.79867       53.19122494        0.54070721
       52.89837       41.49505188        0.45900057
       52.99806       33.88496413        0.42052916
       53.09775       31.28588494        0.41560229
       53.19745       28.59088942        0.45408231
       53.29714       26.36546797        0.38510338
       53.39683       26.91737875        0.40533247
       53.49653       27.09770634        0.41015108
       53.59622       26.62322819        0.40654311
       53.69591       26.66227140        0.44724174
       53.79561       26.21195418        0.37090997
       53.89530       26.28045875        0.36629510
       53.99499       25.83195679        0.36943575
       54.09469       24.84464054        0.37994868
       54.19438       25.82046903        0.42208386
       54.29407       25.79416389        0.38972815
       54.39377       25.79178322        0.39280002
       54.49346       25.66399501        0.39259922
       54.59315       24.96768009        0.39326302
       54.69285       24.25294910        0.41299984
       54.79254       24.80881901        0.35777019
       54.89223       25.00394549        0.35594851
       54.99193       24.97911914        0.36683806
       55.09162       25.42275018        0.38666820
       55.19131       24.09466618        0.40541264
       55.29101       25.59674349        0.38902801
       55.39070       24.72418423        0.39394077
       55.49039       25.10563839        0.39447266
       55.59009       24.50408661        0.40166441
       55.68978       25.52652554        0.41987606
       55.78948       25.77454228        0.36812879
       55.88917       27.08211684        0.37824675
       55.98886       29.49915424        0.39881695
       56.08856       32.07321038        0.43019534
       56.18825       34.54360217        0.48276458
       56.28794       37.74370412        0.46108319
       56.38764       39.36906769        0.48628858
       56.48733       40.11319372        0.49679879
       56.58702       41.33790395        0.51841049
       56.68672       41.52293218        0.53652648
       56.78641       41.14179162        0.46123531
       56.88610       41.81362734        0.46979487
       56.98580       41.15658951        0.46636270
       57.08549       40.84169364        0.49300005
       57.18518       38.70067780        0.49705907
       57.28488       37.84320864        0.45672484
       57.38457       35.38932773        0.46750646
       57.48426       32.33934719        0.45615140
       57.58396       30.54997503        0.45569625
       57.68365       27.51317218        0.43792036
       57.78334       26.85405591        0.37839405
       57.88304       26.25204213        0.37844253
       57.98273       25.96587660        0.38186355
       58.08242       25.38444415        0.40659027
       58.18212       24.70902413        0.40913276
       58.28181       24.90602484        0.38539484
       58.38150       26.47030532        0.41872709
       58.48120       26.93740350        0.43301247
       58.58089       28.65491605        0.45275924
       58.68058       31.23602384        0.46275076
       58.78028       35.57374459        0.43114309
       58.87997       43.83439231        0.47041352
       58.97966       57.42468347        0.55844409
       59.07936       68.97066758        0.65362447
       59.17905       78.97706042        0.71099585
       59.27874       89.26056887        0.72116183
       59.37844       92.77842972        0.76060559
       59.47813       91.61742567        0.78707209
       59.57782       85.08958098        0.79066792
       59.67752       75.79469193        0.69275144
       59.77721       62.75778789        0.57726166
       59.87690       46.93320540        0.49344767
       59.97660       37.85545619        0.46386651
       60.07629       31.93769437        0.46184388
       60.17598       29.25241046        0.42356216
       60.27568       26.07512269        0.38796425
       60.37537       24.56141707        0.38314437
       60.47507       24.77577932        0.39993657
       60.57476       23.77519528        0.42994399
       60.67445       24.31872876        0.37213346
       60.77415       24.52128272        0.35482732
       60.87384       23.59480533        0.34346369
       60.97353       23.89654900        0.36512621
       61.07323       24.09829930        0.41332261
       61.17292       23.25991211        0.35090976
       61.27261       24.06958206        0.36885810
       61.37231       23.41959079        0.37631569
       61.47200       23.34698223        0.39098149
       61.57169       22.10432298        0.43245810
       61.67139       22.78702583        0.35865710
       61.77108       23.11219352        0.35395686
       61.87077       23.59725082        0.35514305
       61.97047       23.70163365        0.36891914
       62.07016       23.74985257        0.41807629
       62.16985       23.41343235        0.36358420
       62.26955       22.51135927        0.36997527
       62.36924       22.25169868        0.38015410
       62.46893       23.30242764        0.40397174
       62.56863       23.33235950        0.45474673
       62.66832       23.18418128        0.36800185
       62.76801       22.97886872        0.35693870
       62.86771       23.02873446        0.34894389
       62.96740       22.62559145        0.35526164
       63.06709       23.40416466        0.40266709
       63.16679       23.16215834        0.35335248
       63.26648       22.30343207        0.35811346
       63.36617       22.32345547        0.37384124
       63.46587       23.20944208        0.39477568
       63.56556       23.83225417        0.42620739
       63.66525       23.41515519        0.35728768
       63.76495       23.29459888        0.34593442
       63.86464       23.23594185        0.34336060
       63.96433       23.58212798        0.36160755
       64.06403       23.17369772        0.38259543
       64.16372       22.87023050        0.35330099
       64.26341       23.50277404        0.37563171
       64.36311       23.84508703        0.38615176
       64.46280       24.60327297        0.41420029
       64.56249       24.43624336        0.41913547
       64.66219       23.45620645        0.35866204
       64.76188       23.84441916        0.35626552
       64.86157       23.45801490        0.35148109
       64.96127       24.56519067        0.37852819
       65.06096       25.50607059        0.41894102
       65.16066       25.44030040        0.37948819
       65.26035       25.85935102        0.39039531
       65.36004       25.96295170        0.40703481
       65.45974       26.54013456        0.42469841
       65.55943       27.03048353        0.44779998
       65.65912       27.61250560        0.39193899
       65.75882       29.53973478        0.40175948
       65.85851       32.05965233        0.41914456
       65.95820       35.32529135        0.46381400
       66.05790       39.13682331        0.50511998
       66.15759       42.34753962        0.49940741
       66.25728       46.34866649        0.53807399
       66.35698       51.92188001        0.59209839
       66.45667       59.49640148        0.67321240
       66.55636       66.06603056        0.70715078
       66.65606       78.10292037        0.68462364
       66.75575      103.40663351        0.77883652
       66.85544      144.11050303        0.91984671
       66.95514      197.28383070        1.13009177
       67.05483      261.45141361        1.32385986
       67.15452      343.13642531        1.46271042
       67.25422      436.20420267        1.75463666
       67.35391      518.76047434        2.02980332
       67.45360      581.44454542        2.30185658
       67.55330      630.48959102        2.33343110
       67.65299      677.61394186        2.20098275
       67.75268      683.71255254        2.18570141
       67.85238      665.82547174        2.17182974
       67.95207      621.59718402        2.22372170
       68.05176      570.07521734        1.99618867
       68.15146      478.17079693        1.77512168
       68.25115      401.15744292        1.70250940
       68.35084      348.83541461        1.65149717
       68.45054      312.21186572        1.71796143
       68.55023      274.59582910        1.37832245
       68.64992      222.39117740        1.13938526
       68.74962      168.09775387        0.98868085
       68.84931      119.84492752        0.83796174
       68.94900       93.44487707        0.83188383
       69.04870       67.39310687        0.59099111
       69.14839       49.92441015        0.52552177
       69.24808       41.34332648        0.51480384
       69.34778       36.36757154        0.49728517
       69.44747       32.51057813        0.54272782
       69.54716       30.13585080        0.40702093
       69.64686       28.36678478        0.38848554
       69.74655       27.32581372        0.38319784
       69.84625       26.38146073        0.38530200
       69.94594       25.22229063        0.42511293
       70.04563       25.88328437        0.35747704
       70.14533       26.62797711        0.37847410
       70.24502       26.06520374        0.39985484
       70.34471       26.52831733        0.42642627
       70.44441       26.92437236        0.50460091
       70.54410       27.90915257        0.40176062
       70.64379       28.15142395        0.40098413
       70.74349       28.95476944        0.41272779
       70.84318       30.09400009        0.44074266
       70.94287       31.38145531        0.49696354
       71.04257       30.45745575        0.40401279
       71.14226       30.02904644        0.41552595
       71.24195       29.08624531        0.42939497
       71.34165       27.84445846        0.44340497
       71.44134       26.35008983        0.47999813
       71.54103       24.81161832        0.37891040
       71.64073       25.39717157        0.37611834
       71.74042       24.82437637        0.36777960
       71.84011       25.07872164        0.38337033
       71.93981       24.48506445        0.41193910
       72.03950       24.17836584        0.34513962
       72.13919       23.75641554        0.35641958
       72.23889       24.13368554        0.37333911
       72.33858       23.09880847        0.40689741
       72.43827       22.87434907        0.44508913
       72.53797       24.33333580        0.37407349
       72.63766       23.92470066        0.36395516
       72.73735       23.18076978        0.34925063
       72.83705       23.77713915        0.37262397
       72.93674       24.61132915        0.40233024
       73.03643       25.61858781        0.35496214
       73.13613       26.87291546        0.38184318
       73.23582       28.11415926        0.41184893
       73.33551       29.83685344        0.47025210
       73.43521       30.99039965        0.52060724
       73.53490       30.49296352        0.41629209
       73.63459       32.33799886        0.42177401
       73.73429       33.37492515        0.42525556
       73.83398       33.72326104        0.45257239
       73.93367       35.60080198        0.48898872
       74.03337       35.82720815        0.43219427
       74.13306       36.37521328        0.45877150
       74.23276       36.31056448        0.47922719
       74.33245       36.26336251        0.52638986
       74.43214       35.88153438        0.54083424
       74.53184       35.25381460        0.45494653
       74.63153       35.86828005        0.45540851
       74.73122       34.26096513        0.44164123
       74.83092       31.66116634        0.44859062
       74.93061       28.90854051        0.43378230
       75.03030       27.82892512        0.38373993
       75.13000       24.61539086        0.37299180
       75.22969       23.95518120        0.38342328
       75.32938       22.07309269        0.40301799
       75.42908       22.33495148        0.41059086
       75.52877       21.28201679        0.34752858
       75.62846       20.59221738        0.33951061
       75.72816       20.56891406        0.33947505
       75.82785       20.22058472        0.36462248
       75.92754       20.55430299        0.34763436
       76.02724       20.06426329        0.32039265
       76.12693       20.43771230        0.33638960
       76.22662       20.25738256        0.35334953
       76.32632       19.80195455        0.39443867
       76.42601       20.02463571        0.37120693
       76.52570       19.64512546        0.33808140
       76.62540       20.15887164        0.34216209
       76.72509       20.47285164        0.34191332
       76.82478       19.49761725        0.38495409
       76.92448       19.94849987        0.30947341
       77.02417       20.21576772        0.32222549
       77.12386       20.39548474        0.33932393
       77.22356       19.94228131        0.35588258
       77.32325       19.61859910        0.43159222
       77.42294       19.67083753        0.34594704
       77.52264       20.25299542        0.34453562
       77.62233       19.95434169        0.34026111
       77.72202       19.99341442        0.33980956
       77.82172       19.98908754        0.39694823
       77.92141       19.94854022        0.30399521
       78.02110       19.84030855        0.32636445
       78.12080       19.85886478        0.34633359
       78.22049       19.53172722        0.36526596
       78.32018       19.29834123        0.42285091
       78.41988       20.05678560        0.34079465
       78.51957       19.44060874        0.34563195
       78.61926       19.97563794        0.34801072
       78.71896       19.46856340        0.34416129
       78.81865       20.10943010        0.38978768
       78.91835       19.85030702        0.29859569
       79.01804       19.70878382        0.32757400
       79.11773       19.97484186        0.34556960
       79.21743       20.49177063        0.37418844
       79.31712       21.03882809        0.42697670
       79.41681       20.60919278        0.34074072
       79.51651       21.76433137        0.35645543
       79.61620       22.29239642        0.36110088
       79.71589       23.77939970        0.38644115
       79.81559       25.21501871        0.42062195
       79.91528       27.20325085        0.37138951
       80.01497       30.66633536        0.41114018
       80.11467       32.06118785        0.43801104
       80.21436       32.74680118        0.47241528
       80.31405       34.73797006        0.57790098
       80.41375       35.24467529        0.44546281
       80.51344       36.10041568        0.44878198
       80.61313       35.82659000        0.45907633
       80.71283       36.27819694        0.48014309
       80.81252       35.28138640        0.53345450
       80.91221       34.54993447        0.39382007
       81.01191       31.61645802        0.40355346
       81.11160       29.53614266        0.41998772
       81.21129       26.97974050        0.43324997
       81.31099       25.10447843        0.46527224
       81.41068       23.70058326        0.35194821
       81.51037       22.13755785        0.34880404
       81.61007       21.77367678        0.36536779
       81.70976       21.40559575        0.37545022
       81.80945       21.20117239        0.39738499
       81.90915       20.67811440        0.29892887
       82.00884       20.15992400        0.31586556
       82.10853       19.79200875        0.34868572
       82.20823       19.17240710        0.37957700
       82.30792       20.44158254        0.40992495
       82.40761       20.35599616        0.33429764
       82.50731       20.18726714        0.33679929
       82.60700       19.97786653        0.35879421
       82.70669       19.54559712        0.38642487
       82.80639       19.69258894        0.36967135
       82.90608       20.15321457        0.30308993
       83.00577       19.46348758        0.31501542
       83.10547       20.45751128        0.37933713
       83.20516       19.47918917        0.41462997
       83.30485       19.76186519        0.39908172
       83.40455       20.48216228        0.33909657
       83.50424       20.73142000        0.33116137
       83.60394       21.14073742        0.36823437
       83.70363       21.35360870        0.41599391
       83.80332       22.14816430        0.37079189
       83.90302       23.17901248        0.31713070
       84.00271       22.84617809        0.32767301
       84.10240       24.76883322        0.41318938
       84.20210       23.79951753        0.49188252
       84.30179       24.23886315        0.40376490
       84.40148       24.94824934        0.35983927
       84.50118       24.53561554        0.35042263
       84.60087       24.50094023        0.39465898
       84.70056       24.70059405        0.51540760
       84.80026       24.11151913        0.35573801
       84.89995       24.11863095        0.32115797
       84.99964       23.21846553        0.32793959
       85.09934       22.51149153        0.38046277
       85.19903       21.63379471        0.63854434
       85.29872       20.98396955        0.33082041
       85.39842       20.32571245        0.33087755
       85.49811       20.53761211        0.32314129
       85.59780       20.00900788        0.35725270
       85.69750       18.92903394        0.62488874
       85.79719       20.00911170        0.30690519
       85.89688       20.02546076        0.29986609
       85.99658       19.49278881        0.30281844
       86.09627       18.83391897        0.34106767
       86.19596       18.72441038        0.65623497
       86.29566       19.55358913        0.31570978
       86.39535       19.30502791        0.31700085
       86.49504       19.72789005        0.31541514
       86.59474       20.11560620        0.34434232
       86.69443       19.68212976        0.71356325
       86.79412       20.06855056        0.29992812
       86.89382       20.10272158        0.29238379
       86.99351       21.00912010        0.31040622
       87.09320       21.25836693        0.34627930
       87.19290       21.67181236        0.82953595
       87.29259       21.12410699        0.32968333
       87.39228       22.08544150        0.34534752
       87.49198       22.20768675        0.33930920
       87.59167       22.46605548        0.34542527
       87.69136       22.81252896        1.04128083
       87.79106       22.55866952        0.32108841
       87.89075       22.96743260        0.32140448
       87.99044       23.19234529        0.33431958
       88.09014       22.66024604        0.35092754
       88.18983       22.19815656        1.84846098
       88.28953       22.72899863        0.35802131
       88.38922       22.14447098        0.35675889
       88.48891       22.12737612        0.34054417
       88.58861       20.60880472        0.31714271
       88.68830       21.15965087        2.51829576
       88.78799       20.37841459        0.30425654
       88.88769       20.12192065        0.29379466
       88.98738       19.82134246        0.30435854
       89.08707       20.00694106        0.31648767
       89.18677       20.54394953        2.61359280
       89.28646       19.40430343        0.31574997
       89.38615       19.44202794        0.31719616
       89.48585       19.46660657        0.31139478
       89.58554       19.29745340        0.30247496
       89.68523       22.54070741        2.64394058
       89.78493       19.16248878        0.29110762
       89.88462       19.78354515        0.29325332
       89.98431       20.14940900        0.30546832
       90.08401       19.28460453        0.30734542
       90.18370       21.37213793        2.67944790
       90.28339       19.22408385        0.31299312
       90.38309       19.75222003        0.32220934
       90.48278       19.64089448        0.31409672
       90.58247       19.75422603        0.30993279
       90.68217       18.65926532        2.37751539
       90.78186       20.28360580        0.30465913
       90.88155       20.02125565        0.29511938
       90.98125       20.64932827        0.30809655
       91.08094       20.47825310        0.31662310
       91.18063       21.87193895        2.60945050
       91.28033       21.10963320        0.33037013
       91.38002       20.77608427        0.33476361
       91.47971       21.44435097        0.33193122
       91.57941       22.95167036        0.33711191
       91.67910       27.65913127        2.80633405
       91.77879       24.91233746        0.33652989
       91.87849       26.41754723        0.33947805
       91.97818       29.10850529        0.37021876
       92.07787       34.05207331        0.41579129
       92.17757       32.84501382        3.10016375
       92.27726       37.70892544        0.45095297
       92.37695       44.52901201        0.50660787
       92.47665       54.72967735        0.54074905
       92.57634       71.42748628        0.59641830
       92.67603       91.70041258        4.43384940
       92.77573       95.30143290        0.66674330
       92.87542      125.09279712        0.75226241
       92.97512      151.26008338        0.86533704
       93.07481      172.09623219        1.05633694
       93.17450      175.79496066        2.01512917
       93.27420      195.67503568        1.05492726
       93.37389      212.59133516        1.07305657
       93.47358      227.47322652        1.11906631
       93.57328      246.37015755        1.35278818
       93.67297      249.06977361        1.83492934
       93.77266      265.29885282        1.17666346
       93.87236      270.64196598        1.12906805
       93.97205      274.90450212        1.19905592
       94.07174      276.00240849        1.57223909
       94.17144      270.66803621        1.77718235
       94.27113      257.35260711        1.27845760
       94.37082      239.50159341        1.19100041
       94.47052      227.13922108        1.11125981
       94.57021      217.36379719        1.43128439
       94.66990      211.79105570        1.42406862
       94.76960      206.83729923        1.08798108
       94.86929      203.12223326        0.99004139
       94.96898      190.29884279        0.97028556
       95.06868      173.44589860        1.05943555
       95.16837      167.84372263        1.42109290
       95.26806      155.91142134        1.05532756
       95.36776      145.01445751        0.92022149
       95.46745      135.42619207        0.85233617
       95.56714      123.39718457        0.93066043
       95.66684      120.54155672        1.04017077
       95.76653      115.30119489        0.84456041
       95.86622      101.17402345        0.67157050
       95.96592       85.40888445        0.63412788
       96.06561       71.63241417        0.74188932
       96.16530       63.52201613        0.74032818
       96.26500       56.05175806        0.62403601
       96.36469       48.17156794        0.51509452
       96.46438       43.41953648        0.47528917
       96.56408       39.48271048        0.56555433
       96.66377       37.87112674        0.53782748
       96.76346       35.51696086        0.46378354
       96.86316       34.35118997        0.39346421
       96.96285       32.82187210        0.39663473
       97.06254       31.70032216        0.52520069
       97.16224       32.79863678        0.51135624
       97.26193       30.89678726        0.46396310
       97.36162       32.53797037        0.44572600
       97.46132       32.12835679        0.41140758
       97.56101       31.63541635        0.51549401
       97.66071       31.52197428        0.46042717
       97.76040       30.67758255        0.41280721
       97.86009       29.21740667        0.36299786
       97.95979       28.64468333        0.36524062
       98.05948       29.13625956        0.51521184
       98.15917       28.81796228        0.45755982
       98.25887       29.36352221        0.44385937
       98.35856       28.69592794        0.41238980
       98.45825       27.98855660        0.37859858
       98.55795       27.17415957        0.48665478
       98.65764       26.17133312        0.40916133
       98.75733       25.85158024        0.37807939
       98.85703       25.35987619        0.34902901
       98.95672       24.48131234        0.34413164
       99.05641       23.57292947        0.47079553
       99.15611       24.30159339        0.41009403
       99.25580       23.98135209        0.39287535
       99.35549       23.30092311        0.36791537
       99.45519       23.10211146        0.34106959
       99.55488       22.72975495        0.45153188
       99.65457       22.81022025        0.37255802
       99.75427       23.20278764        0.35189390
       99.85396       22.81612511        0.33616184
       99.95365       22.48835829        0.32709735
      100.05335       22.33499393        0.46202851
      100.15304       22.38604569        0.38848454
      100.25273       22.68849120        0.38656351
      100.35243       21.29443883        0.37162588
      100.45212       21.70626358        0.34225978
      100.55181       20.97037243        0.44273453
      100.65151       21.05183336        0.36276485
      100.75120       20.99910733        0.33731456
      100.85089       21.32977610        0.32419852
      100.95059       20.64027927        0.30974409
      101.05028       21.31332048        0.44907453
      101.14997       20.27500716        0.36080245
      101.24967       20.74336662        0.35963653
      101.34936       19.92529325        0.35393901
      101.44905       19.96227296        0.33600068
      101.54875       20.54793432        0.42844040
      101.64844       19.74347651        0.34163299
      101.74813       19.93025490        0.32191883
      101.84783       19.34691876        0.30738208
      101.94752       19.30308896        0.32344099
      102.04722       19.86803185        0.39438133
      102.14691       19.34627472        0.35028233
      102.24660       19.73000417        0.35085923
      102.34630       19.30601065        0.34966123
      102.44599       19.48945259        0.35644609
      102.54568       18.88704529        0.36726171
      102.64538       18.64545200        0.32532651
      102.74507       19.01307752        0.31204683
      102.84476       19.13865956        0.30668316
      102.94446       19.09342304        0.34741441
      103.04415       19.01324506        0.37029751
      103.14384       19.01036270        0.34697738
      103.24354       19.32121436        0.34497992
      103.34323       19.11801319        0.33974146
      103.44292       18.75800835        0.36411115
      103.54262       18.71162515        0.35297769
      103.64231       18.61641403        0.31964292
      103.74200       18.85777799        0.30632998
      103.84170       18.69515545        0.29904041
      103.94139       18.74474229        0.36367568
      104.04108       19.66464659        0.36082405
      104.14078       19.17385257        0.34507691
      104.24047       19.45626046        0.34672966
      104.34016       18.87960425        0.34297310
      104.43986       18.57278194        0.38737814
      104.53955       19.07080028        0.35393848
      104.63924       18.53120476        0.32713034
      104.73894       18.61219639        0.31508660
      104.83863       18.81173963        0.30749665
      104.93832       19.32835926        0.37747514
      105.03802       19.35166974        0.35452129
      105.13771       19.17563572        0.33952969
      105.23740       19.54882951        0.34153185
      105.33710       19.21532003        0.33933290
      105.43679       19.37347036        0.39667479
      105.53648       19.81051925        0.36089982
      105.63618       19.96910063        0.33329585
      105.73587       20.06715133        0.31963178
      105.83556       20.82145278        0.31661236
      105.93526       20.16189529        0.39402343
      106.03495       19.54884878        0.35131534
      106.13464       20.28942372        0.34548551
      106.23434       20.33480858        0.34789551
      106.33403       19.57340694        0.34495346
      106.43372       20.06474215        0.41777252
      106.53342       20.68978770        0.36962312
      106.63311       20.46621380        0.33424394
      106.73281       19.91093724        0.31306933
      106.83250       19.56173109        0.30493405
      106.93219       19.57486329        0.39475170
      107.03189       19.34198651        0.34770920
      107.13158       18.97621586        0.33355001
      107.23127       19.94556201        0.34839299
      107.33097       19.35800894        0.34333989
      107.43066       19.06176271        0.41044650
      107.53035       19.05667753        0.35273174
      107.63005       19.27546163        0.32281233
      107.72974       19.28628761        0.30937597
      107.82943       19.23052059        0.30457065
      107.92913       18.94068063        0.39952377
      108.02882       19.48296760        0.35527038
      108.12851       19.33066738        0.33826380
      108.22821       18.98722020        0.33048246
      108.32790       19.67303636        0.33211548
      108.42759       19.11918260        0.41509410
      108.52729       19.03835597        0.35121213
      108.62698       20.19459378        0.32707890
      108.72667       19.76703211        0.31013837
      108.82637       20.45114822        0.32324693
      108.92606       21.36984647        0.42070631
      109.02575       21.51603398        0.36932572
      109.12545       21.48724012        0.35942840
      109.22514       21.86590767        0.36165916
      109.32483       22.42475333        0.39833329
      109.42453       22.86924395        0.42410493
      109.52422       22.79013227        0.38192035
      109.62391       24.06500503        0.37295129
      109.72361       24.20017044        0.35812260
      109.82330       24.89289737        0.34177631
      109.92299       24.57212495        0.44157191
      110.02269       25.61968092        0.39323307
      110.12238       25.45083223        0.38904504
      110.22207       25.10491390        0.38303410
      110.32177       25.40367831        0.39280655
      110.42146       26.08647369        0.48247508
      110.52115       26.29106323        0.41212477
      110.62085       26.30956180        0.39015834
      110.72054       26.49945343        0.36765810
      110.82023       25.73431325        0.37284038
      110.91993       25.48868562        0.43107005
      111.01962       25.83950942        0.40104050
      111.11931       24.78044671        0.39448498
      111.21901       25.50510845        0.39226898
      111.31870       24.07468043        0.41263594
      111.41840       24.81942828        0.43624975
      111.51809       24.06727363        0.39185460
      111.61778       23.46371620        0.36425615
      111.71748       22.69114615        0.33195092
      111.81717       22.43168922        0.35721091
      111.91686       22.36381038        0.37488025
      112.01656       21.65963009        0.36015925
      112.11625       22.17927987        0.36675256
      112.21594       22.46008032        0.36833710
      112.31564       21.99056480        0.40394384
      112.41533       21.61859537        0.39323217
      112.51502       21.92743774        0.36409218
      112.61472       22.16423693        0.34881160
      112.71441       21.73113566        0.32521928
      112.81410       21.13694914        0.35850463
      112.91380       21.17808411        0.36512820
      113.01349       20.34022706        0.35095120
      113.11318       20.61635503        0.35360790
      113.21288       20.69473909        0.35371493
      113.31257       20.68620573        0.39078548
      113.41226       20.86763169        0.37225149
      113.51196       20.16568223        0.34400117
      113.61165       19.57718033        0.32707451
      113.71134       19.33445122        0.30953940
      113.81104       19.42268842        0.35549286
      113.91073       19.67003495        0.34878787
      114.01042       19.65885657        0.34574825
      114.11012       19.17006199        0.34081833
      114.20981       19.61058604        0.34621551
      114.30950       18.82086560        0.38426251
      114.40920       19.21659100        0.35846160
      114.50889       18.88788006        0.33264760
      114.60858       19.00953340        0.32364313
      114.70828       19.27401931        0.31489192
      114.80797       18.86161845        0.35500562
      114.90766       19.46237863        0.33945238
      115.00736       18.54703515        0.32907607
      115.10705       18.28720964        0.32778286
      115.20674       19.20685791        0.34123565
      115.30644       18.72155232        0.38587356
      115.40613       18.95977138        0.35219890
      115.50582       18.36246532        0.32789005
      115.60552       18.78800222        0.32116142
      115.70521       19.09326238        0.31168645
      115.80490       18.65584857        0.35846097
      115.90460       18.93462409        0.32669614
      116.00429       18.58163763        0.32741976
      116.10399       18.87376813        0.33212169
      116.20368       18.64418232        0.33740062
      116.30337       18.31960521        0.39948665
      116.40307       19.70618703        0.36231155
      116.50276       19.39390813        0.34045445
      116.60245       18.98940529        0.32383726
      116.70215       19.32226459        0.31477992
      116.80184       19.44020362        0.37457003
      116.90153       18.92505785        0.33262854
      117.00123       18.89753568        0.32943421
      117.10092       19.46661298        0.34318004
      117.20061       19.55649347        0.34921354
      117.30031       20.06761136        0.42538046
      117.40000       19.58821597        0.35201775
      117.49969       20.26049334        0.33986866
      117.59939       20.13585962        0.32329715
      117.69908       20.23071056        0.31371125
      117.79877       21.62557853        0.39784814
      117.89847       21.27054271        0.34257444
      117.99816       21.69108161        0.35101302
      118.09785       23.03136818        0.37057810
      118.19755       23.96750017        0.39499051
      118.29724       24.85336705        0.43846606
      118.39693       26.06119459        0.40966266
      118.49663       26.86991181        0.39128982
      118.59632       28.91416213        0.39078669
      118.69601       32.58173229        0.43385015
      118.79571       34.55283071        0.48351151
      118.89540       38.09329697        0.47488814
      118.99509       42.35653019        0.50125346
      119.09479       49.34672605        0.54596565
      119.19448       54.84021738        0.62747213
      119.29417       60.14786891        0.68399960
      119.39387       67.56014392        0.66817497
      119.49356       76.91192258        0.67172845
      119.59325       88.64078288        0.70325282
      119.69295      100.93438935        0.79572549
      119.79264      110.50059989        0.84475086
      119.89233      122.72165998        0.86463872
      119.99203      137.16534904        0.89492941
      120.09172      147.86432501        0.94982892
      120.19141      158.08678253        1.10395421
      120.29111      163.83045765        1.11143840
      120.39080      174.30815641        1.09733729
      120.49049      186.28579769        1.06062516
      120.59019      196.64624865        1.06085708
      120.68988      206.36260039        1.17324544
      120.78958      213.33048788        1.16629542
      120.88927      223.31710886        1.17564845
      120.98896      227.36334322        1.17466122
      121.08866      233.25766141        1.19615006
      121.18835      238.96274240        1.39246591
      121.28804      245.31163219        1.37676924
      121.38774      252.39335670        1.32635246
      121.48743      253.66224587        1.25913727
      121.58712      254.90821925        1.20357660
      121.68682      251.17906163        1.31490733
      121.78651      249.73681448        1.25076260
      121.88620      243.03058690        1.21701654
      121.98590      237.33130455        1.20882305
      122.08559      229.29257489        1.20951366
      122.18528      225.80310665        1.40054032
      122.28498      217.80610677        1.28976161
      122.38467      208.36078847        1.20461421
      122.48436      196.74821031        1.10436808
      122.58406      185.18891397        1.01155737
      122.68375      172.23450579        1.10197537
      122.78344      161.11313273        0.99857805
      122.88314      151.51746777        0.95986080
      122.98283      140.50027091        0.94231745
      123.08252      133.14628995        0.91286610
      123.18222      123.79980287        1.02319198
      123.28191      116.11012483        0.89656134
      123.38160      109.12838721        0.83799520
      123.48130      101.25393790        0.77575813
      123.58099       92.16143101        0.69001579
      123.68068       85.78363390        0.75843960
      123.78038       79.04568229        0.65647690
      123.88007       72.62361677        0.61699809
      123.97976       66.97292187        0.60141605
      124.07946       59.84834293        0.56119106
      124.17915       56.87031719        0.61559741
      124.27884       52.17421035        0.52738755
      124.37854       47.73158895        0.47404287
      124.47823       43.75937169        0.44386045
      124.57792       40.30147248        0.45357018
