        5.04553       38.56258692        0.98130334
        5.14523       36.31047752        0.91066081
        5.24492       36.74696497        0.90358023
        5.34461       36.99644807        0.83470597
        5.44431       37.71650706        0.92194923
        5.54400       36.03226181        0.75083438
        5.64369       35.30756381        0.74680488
        5.74339       37.05138767        0.68593148
        5.84308       37.46094920        0.69812983
        5.94277       36.34759782        0.68573869
        6.04247       35.83332495        0.66037822
        6.14216       37.22691395        0.61981638
        6.24185       36.93321537        0.63615739
        6.34155       36.78818091        0.60573893
        6.44124       37.20388613        0.64223004
        6.54093       36.62505636        0.60411590
        6.64063       36.51954136        0.57177461
        6.74032       35.90149087        0.56685238
        6.84001       36.19813092        0.56598848
        6.93971       36.65866798        0.57456735
        7.03940       37.00809696        0.53782422
        7.13909       36.00489537        0.52801090
        7.23879       37.38293972        0.53056892
        7.33848       37.15490917        0.53708138
        7.43817       37.58264491        0.52881300
        7.53787       36.69142746        0.51565106
        7.63756       37.25403429        0.49559738
        7.73725       35.69258750        0.50419982
        7.83695       37.03036464        0.49697537
        7.93664       37.74127542        0.52348154
        8.03633       35.82272050        0.45901418
        8.13603       37.01799971        0.46127851
        8.23572       37.33610611        0.47239679
        8.33541       37.64643459        0.46967231
        8.43511       37.83758937        0.49822544
        8.53480       37.73831405        0.46103322
        8.63449       37.11437994        0.45292081
        8.73419       36.61821823        0.43918269
        8.83388       37.65669374        0.44797613
        8.93357       38.22025884        0.45036399
        9.03327       38.12853376        0.43808047
        9.13296       37.30768939        0.43102468
        9.23265       38.64763476        0.44425930
        9.33235       38.22830131        0.45477931
        9.43204       38.45550647        0.45437937
        9.53174       39.01263482        0.43983545
        9.63143       38.04484644        0.44881966
        9.73112       39.33466772        0.45654688
        9.83082       39.62276958        0.47813309
        9.93051       39.04144645        0.46749457
       10.03020       39.45572103        0.45432930
       10.12990       39.46655134        0.44352465
       10.22959       40.21176143        0.46593816
       10.32928       40.74534135        0.48869008
       10.42898       41.03625187        0.48413986
       10.52867       40.67732030        0.46617384
       10.62836       40.63739147        0.46583486
       10.72806       40.43466299        0.47042975
       10.82775       40.35368977        0.46878764
       10.92744       41.47781353        0.48245147
       11.02714       41.31052798        0.45988154
       11.12683       40.61033464        0.47123112
       11.22652       40.78966989        0.47782038
       11.32622       41.13555715        0.49254413
       11.42591       42.13736062        0.48113088
       11.52560       41.86619443        0.47415685
       11.62530       43.26697867        0.48645836
       11.72499       41.95256090        0.48753884
       11.82468       42.23764543        0.50244381
       11.92438       43.38482108        0.48397202
       12.02407       43.79929469        0.48086511
       12.12376       43.06811822        0.47962898
       12.22346       43.43431430        0.51112727
       12.32315       44.06031664        0.51988498
       12.42284       43.11931072        0.49026751
       12.52254       44.84285222        0.49618007
       12.62223       44.67678265        0.50896376
       12.72192       45.25157498        0.49770653
       12.82162       45.96228565        0.54194750
       12.92131       45.63793197        0.49574623
       13.02100       46.61550721        0.49524886
       13.12070       47.00558678        0.50555701
       13.22039       46.46869836        0.51731477
       13.32008       47.55649248        0.54336339
       13.41978       48.18469267        0.52000244
       13.51947       47.35434347        0.52497705
       13.61916       49.33403071        0.51756199
       13.71886       48.41627408        0.53757396
       13.81855       49.67216503        0.55286018
       13.91824       49.66100683        0.52025773
       14.01794       50.71573389        0.51441583
       14.11763       52.42928247        0.54186974
       14.21733       53.25278431        0.54889927
       14.31702       53.02753135        0.57525578
       14.41671       53.96001713        0.56292956
       14.51641       54.89268597        0.55225159
       14.61610       55.66423325        0.55895017
       14.71579       58.13748889        0.58196057
       14.81549       60.42405531        0.62260860
       14.91518       61.53766436        0.57461985
       15.01487       65.22138001        0.60273675
       15.11457       70.14360405        0.63317619
       15.21426       74.91429061        0.67483308
       15.31395       82.43743155        0.72762197
       15.41365       92.10985181        0.74570679
       15.51334      108.02555122        0.78577701
       15.61303      125.36296342        0.87470348
       15.71273      149.91766199        0.94434567
       15.81242      173.99137144        1.07195385
       15.91211      186.41958210        1.07298137
       16.01181      230.49618047        1.15667399
       16.11150      278.66404479        1.32226034
       16.21119      346.67614035        1.53682209
       16.31089      424.14802259        1.72682880
       16.41058      495.84353183        1.85229669
       16.51027      630.97881307        2.17698966
       16.60997      820.97609725        2.47129687
       16.70966     1014.46192275        2.89971931
       16.80935     1140.78629409        3.17010409
       16.90905     1302.02647646        3.36059268
       17.00874     1149.75334100        2.96109888
       17.10843      916.67878356        2.70691441
       17.20813      712.70035452        2.32713433
       17.30782      542.63946003        1.98906056
       17.40751      373.27077528        1.59910819
       17.50721      284.51430797        1.33002802
       17.60690      207.56420279        1.15629164
       17.70659      160.71999491        1.01278170
       17.80629      121.04982101        0.88225870
       17.90598       94.96467471        0.72724463
       18.00567       78.75983227        0.67201245
       18.10537       72.54550024        0.62666553
       18.20506       65.59038162        0.65180785
       18.30475       64.07839306        0.61436473
       18.40445       60.11339084        0.57855005
       18.50414       57.99630999        0.58663971
       18.60384       55.56055024        0.56473971
       18.70353       55.03471944        0.59452630
       18.80322       52.31955154        0.54506312
       18.90292       51.77788147        0.53674416
       19.00261       50.23171293        0.51244054
       19.10230       48.75815817        0.53792161
       19.20200       48.82362736        0.55085004
       19.30169       47.45696503        0.52344780
       19.40138       48.71700228        0.52564096
       19.50108       46.67103027        0.52597888
       19.60077       46.57515510        0.52019086
       19.70046       46.55550436        0.54507310
       19.80016       45.68506621        0.51121251
       19.89985       45.92182762        0.49757858
       19.99954       44.66476784        0.49548741
       20.09924       44.94877547        0.50318239
       20.19893       45.49661826        0.54125548
       20.29862       43.37002948        0.50034713
       20.39832       43.24118395        0.51556897
       20.49801       43.16895385        0.50529449
       20.59770       43.39077330        0.51695889
       20.69740       41.49529348        0.52325921
       20.79709       41.01969795        0.49537802
       20.89678       40.79164637        0.48150576
       20.99648       39.98265491        0.48443523
       21.09617       40.18425781        0.50708194
       21.19586       39.27497053        0.50098215
       21.29556       39.62213344        0.49174510
       21.39525       39.37118935        0.49090022
       21.49494       38.60647701        0.47753723
       21.59464       38.74479046        0.48879774
       21.69433       38.53644621        0.50755737
       21.79402       38.69565082        0.46433175
       21.89372       38.53558563        0.45394567
       21.99341       37.84705080        0.46887209
       22.09310       37.30431146        0.46743098
       22.19280       37.28901749        0.49560523
       22.29249       37.09428744        0.46125207
       22.39218       36.76856991        0.46927003
       22.49188       37.53057743        0.47475473
       22.59157       37.08005003        0.47796388
       22.69126       36.26180829        0.49662272
       22.79096       36.73914204        0.45168697
       22.89065       36.65192245        0.44081680
       22.99034       36.96445062        0.45491004
       23.09004       36.96021838        0.47509025
       23.18973       35.98927963        0.46788983
       23.28943       36.54201050        0.46460702
       23.38912       36.65764096        0.47003843
       23.48881       36.70660725        0.47273024
       23.58851       36.48803141        0.47729102
       23.68820       36.09864040        0.49989592
       23.78789       36.04678968        0.44476827
       23.88759       35.36684240        0.44677452
       23.98728       35.54716216        0.45710511
       24.08697       35.62395833        0.44869829
       24.18667       35.30917505        0.47903701
       24.28636       34.46197412        0.44885276
       24.38605       35.15613472        0.46327236
       24.48575       35.08903399        0.46212404
       24.58544       35.68611195        0.48027175
       24.68513       34.21588756        0.47024096
       24.78483       34.71370168        0.43655508
       24.88452       35.07086451        0.43777883
       24.98421       34.55468998        0.44941498
       25.08391       33.51163799        0.45168093
       25.18360       34.34424820        0.46721652
       25.28329       35.13158949        0.45558014
       25.38299       34.06504295        0.44715130
       25.48268       34.76897821        0.45449862
       25.58237       35.30250843        0.47654942
       25.68207       33.39560332        0.45398525
       25.78176       33.77970471        0.42921828
       25.88145       34.74603042        0.44700340
       25.98115       34.74673848        0.45180645
       26.08084       34.18327546        0.45914782
       26.18053       34.55998175        0.47435765
       26.28023       33.61110529        0.44261536
       26.37992       34.91173600        0.45152173
       26.47961       34.44694599        0.46319480
       26.57931       34.35358632        0.48270297
       26.67900       34.00313647        0.44937148
       26.77869       34.43889119        0.44907573
       26.87839       33.08972112        0.43532038
       26.97808       34.58739988        0.44235882
       27.07777       34.89450628        0.47872809
       27.17747       34.01962977        0.45118603
       27.27716       34.95961776        0.44591284
       27.37685       34.79526255        0.46224050
       27.47655       35.15873963        0.45744825
       27.57624       34.30752628        0.47201495
       27.67593       33.95907933        0.45987105
       27.77563       33.64422312        0.43819555
       27.87532       34.74389629        0.43799187
       27.97502       34.73924369        0.44675379
       28.07471       34.43797171        0.47137909
       28.17440       34.59869197        0.45194718
       28.27410       33.94221850        0.44663690
       28.37379       34.85623253        0.46357121
       28.47348       34.62461931        0.45900000
       28.57318       34.95576948        0.49963997
       28.67287       35.88177655        0.45142131
       28.77256       35.07001458        0.43800699
       28.87226       34.87337332        0.44749669
       28.97195       34.99788216        0.45000373
       29.07164       34.78638589        0.48832940
       29.17134       34.17051130        0.44085035
       29.27103       34.84579343        0.45243489
       29.37072       34.98043250        0.47198870
       29.47042       35.17312613        0.46649007
       29.57011       34.79602065        0.49097957
       29.66980       35.71403838        0.45365817
       29.76950       36.10687680        0.45593300
       29.86919       35.44573849        0.44263840
       29.96888       37.18117768        0.47424248
       30.06858       37.17666805        0.48963589
       30.16827       36.99741014        0.46207384
       30.26796       37.58821283        0.46632462
       30.36766       38.02570811        0.47864107
       30.46735       37.74137256        0.48092275
       30.56704       39.82237963        0.52001062
       30.66674       39.54297120        0.48370342
       30.76643       41.01981334        0.48115043
       30.86612       40.73279935        0.48933326
       30.96582       42.08651050        0.50115065
       31.06551       42.73189781        0.52964756
       31.16520       45.57266986        0.51454529
       31.26490       49.83605619        0.53426008
       31.36459       57.27309718        0.58175324
       31.46428       69.57609766        0.66996188
       31.56398       90.12320643        0.77448285
       31.66367      109.58010733        0.80143307
       31.76336      152.91216419        0.95552955
       31.86306      229.68145762        1.17691668
       31.96275      329.13752997        1.46706551
       32.06244      401.42642517        1.69898499
       32.16214      467.74441949        1.74349106
       32.26183      449.91627613        1.74640977
       32.36152      370.99943710        1.62051121
       32.46122      284.93113530        1.41790266
       32.56091      210.02062075        1.22329273
       32.66061      139.79532432        0.93661529
       32.76030      105.13763491        0.78980745
       32.85999       93.31979901        0.75387644
       32.95969      103.34703103        0.80301673
       33.05938      134.39954687        0.93767821
       33.15907      186.36409948        1.05206150
       33.25877      287.05893846        1.37094605
       33.35846      449.38788993        1.77639323
       33.45815      651.46790794        2.30316631
       33.55785      834.49912825        2.69284044
       33.65754     1057.26892111        2.92734787
       33.75723     1157.22130832        3.11108772
       33.85693     1058.92277335        2.94323283
       33.95662      900.59171943        2.72420651
       34.05631      737.79191078        2.38327796
       34.15601      582.13809322        2.02204790
       34.25570      464.18684798        1.77108335
       34.35539      348.65890639        1.54061734
       34.45509      254.03443077        1.36563480
       34.55478      180.55451906        1.06950333
       34.65447      114.15616303        0.80738223
       34.75417       80.69200968        0.68580379
       34.85386       63.07969354        0.59701513
       34.95355       55.53054264        0.57740275
       35.05325       51.36805339        0.57383046
       35.15294       49.06868265        0.52895627
       35.25263       47.15733632        0.52742658
       35.35233       45.55537302        0.53324004
       35.45202       43.01243789        0.54093071
       35.55171       42.62600074        0.52492312
       35.65141       41.40968032        0.49948721
       35.75110       40.78970928        0.49134092
       35.85079       39.48265595        0.48106148
       35.95049       37.67232825        0.48153432
       36.05018       38.32901655        0.47789999
       36.14987       37.36718113        0.45337058
       36.24957       36.41619241        0.46713666
       36.34926       35.80949716        0.47214055
       36.44895       35.10490217        0.47587546
       36.54865       34.56939814        0.45405673
       36.64834       34.91919088        0.44661376
       36.74803       33.40811494        0.44283570
       36.84773       34.58688442        0.44811387
       36.94742       32.96382977        0.47368572
       37.04711       32.52703906        0.41428675
       37.14681       32.67965403        0.42443180
       37.24650       32.18251446        0.43183527
       37.34620       31.84431485        0.44090491
       37.44589       32.81811218        0.47899824
       37.54558       31.06533937        0.42475287
       37.64528       31.91748335        0.43097019
       37.74497       31.78957300        0.42296840
       37.84466       32.55210542        0.45333537
       37.94436       30.93947591        0.45064263
       38.04405       31.88443727        0.41387877
       38.14374       32.27129638        0.42002590
       38.24344       31.74181973        0.42290452
       38.34313       31.02612972        0.43622089
       38.44282       31.82541691        0.47815853
       38.54252       32.28035712        0.43158299
       38.64221       33.85649371        0.44174018
       38.74190       35.67850585        0.45811886
       38.84160       39.55051565        0.48398203
       38.94129       43.70969470        0.53435042
       39.04098       52.10540658        0.52519888
       39.14068       59.44427724        0.58347441
       39.24037       64.07452605        0.60605708
       39.34006       62.59909160        0.62166894
       39.43976       58.97782035        0.65683300
       39.53945       52.45669872        0.55401163
       39.63914       43.59127979        0.50238860
       39.73884       38.24427830        0.47188492
       39.83853       34.57713234        0.44510187
       39.93822       32.18474358        0.45484873
       40.03792       31.00719121        0.40737982
       40.13761       30.87434090        0.40768122
       40.23730       30.54299811        0.42034075
       40.33700       31.72744151        0.44160228
       40.43669       31.34855613        0.45885398
       40.53638       32.74429631        0.43597017
       40.63608       32.31568168        0.44109863
       40.73577       33.09526712        0.44400849
       40.83546       33.71327235        0.45218703
       40.93516       32.69532617        0.45381969
       41.03485       32.56334432        0.42718207
       41.13454       32.80459185        0.42947769
       41.23424       31.77083323        0.43269763
       41.33393       31.43482212        0.44970630
       41.43362       31.47952528        0.46445722
       41.53332       31.40568183        0.43325515
       41.63301       31.16539798        0.43982200
       41.73270       32.43881877        0.43897216
       41.83240       31.64232743        0.44661497
       41.93209       32.59129417        0.45038553
       42.03179       33.03111677        0.41384080
       42.13148       35.19541500        0.44905628
       42.23117       37.81953970        0.46595589
       42.33087       42.65887340        0.53001559
       42.43056       52.35928788        0.57645923
       42.53025       66.42860181        0.63010854
       42.62995       91.89937605        0.74974903
       42.72964      131.43921474        0.90825143
       42.82933      176.52162438        1.08025666
       42.92903      214.31639612        1.15617407
       43.02872      243.62222945        1.17496135
       43.12841      233.37114469        1.16959541
       43.22811      193.97428196        1.11122216
       43.32780      150.15763739        1.02002403
       43.42749      112.47291475        0.85909026
       43.52719       75.52691614        0.67310509
       43.62688       52.20125745        0.55503781
       43.72657       41.37261543        0.50501377
       43.82627       36.92157219        0.49870871
       43.92596       34.80725476        0.43759409
       44.02565       32.61118031        0.42017059
       44.12535       31.98283755        0.43098038
       44.22504       30.58184783        0.43868673
       44.32473       29.80982086        0.45689207
       44.42443       29.30733855        0.43501731
       44.52412       29.44329107        0.42328551
       44.62381       29.47986606        0.43008586
       44.72351       30.03544184        0.41989105
       44.82320       28.69829583        0.45900129
       44.92289       29.12394546        0.38482922
       45.02259       28.56092840        0.38427293
       45.12228       28.16354589        0.39493916
       45.22197       29.15891256        0.41181562
       45.32167       28.26398926        0.44866615
       45.42136       28.30103573        0.40911611
       45.52105       27.87090186        0.40220636
       45.62075       27.09379999        0.40143175
       45.72044       27.37911771        0.40232479
       45.82013       26.05967939        0.42847759
       45.91983       27.41979252        0.37502494
       46.01952       26.72499735        0.37988479
       46.11921       26.46796225        0.37874418
       46.21891       27.12146573        0.40271830
       46.31860       26.86638806        0.43317118
       46.41830       26.06035839        0.39397745
       46.51799       26.29586260        0.39644020
       46.61768       26.23972230        0.39397752
       46.71738       26.44233960        0.40640956
       46.81707       26.74228305        0.42430264
       46.91676       26.04405262        0.36636310
       47.01646       27.04720424        0.38339131
       47.11615       27.33261631        0.39338343
       47.21584       27.80026293        0.40891977
       47.31554       26.58999006        0.43423563
       47.41523       26.99749079        0.40999772
       47.51492       27.56562566        0.41613259
       47.61462       26.59622157        0.40688634
       47.71431       26.46073557        0.41060027
       47.81400       27.19843256        0.42788359
       47.91370       26.08728912        0.36812481
       48.01339       25.48225587        0.36294053
       48.11308       25.87405786        0.37809527
       48.21278       25.20244672        0.38824969
       48.31247       25.58700889        0.40350869
       48.41216       26.28592775        0.38266833
       48.51186       25.89280565        0.39275450
       48.61155       25.78658639        0.39002239
       48.71124       25.99950747        0.39959906
       48.81094       25.71053018        0.39493372
       48.91063       26.04687599        0.35520742
       49.01032       25.54828169        0.36230405
       49.11002       26.53018610        0.38324845
       49.20971       25.06611057        0.39221066
       49.30940       26.12896642        0.41376690
       49.40910       25.84490029        0.39157433
       49.50879       25.64902003        0.39764168
       49.60848       26.22186344        0.40606083
       49.70818       26.34344590        0.42283006
       49.80787       26.81054101        0.41384493
       49.90756       26.05762341        0.36996367
       50.00726       25.68331337        0.37575268
       50.10695       25.78986389        0.38574359
       50.20664       26.28786908        0.40828233
       50.30634       27.02499745        0.43346704
       50.40603       27.57507616        0.41044684
       50.50572       25.82996977        0.39724168
       50.60542       27.49239658        0.41040470
       50.70511       26.99742465        0.41772455
       50.80480       27.43606056        0.41309706
       50.90450       28.57115675        0.38212340
       51.00419       29.13721127        0.39105801
       51.10389       29.51578598        0.40677286
       51.20358       30.60846273        0.44144801
       51.30327       34.32166242        0.46499043
       51.40297       39.52997061        0.47815493
       51.50266       47.86333304        0.53026310
       51.60235       61.21607481        0.61290206
       51.70205       78.09539859        0.73923898
       51.80174       96.66955258        0.76139039
       51.90143      120.34206277        0.79832333
       52.00113      138.30610278        0.86146775
       52.10082      145.67736143        0.91574554
       52.20051      139.59095898        0.98307806
       52.30021      127.24817750        0.89924060
       52.39990      109.50789152        0.81499319
       52.49959       90.61239915        0.75250024
       52.59929       71.94617424        0.68040433
       52.69898       60.36916619        0.68285601
       52.79867       49.21490675        0.51942769
       52.89837       38.39968154        0.44105375
       52.99806       32.96504044        0.41450579
       53.09775       30.03003064        0.40687550
       53.19745       28.64591210        0.45431017
       53.29714       27.69594733        0.39462578
       53.39683       27.51984381        0.40970257
       53.49653       27.63771191        0.41406983
       53.59622       27.66678844        0.41433054
       53.69591       27.63177141        0.45517942
       53.79561       26.83980963        0.37519887
       53.89530       26.77522357        0.36959145
       53.99499       26.54340261        0.37436845
       54.09469       26.00610517        0.38864077
       54.19438       26.44706995        0.42702993
       54.29407       25.72323351        0.38900246
       54.39377       26.48179791        0.39789020
       54.49346       26.50072148        0.39883050
       54.59315       25.62547438        0.39827739
       54.69285       25.55076886        0.42382275
       54.79254       25.86472007        0.36521396
       54.89223       25.63311889        0.36027711
       54.99193       25.54064618        0.37080755
       55.09162       25.01447765        0.38333659
       55.19131       25.46701278        0.41672290
       55.29101       25.39857023        0.38732000
       55.39070       25.73730538        0.40182774
       55.49039       25.24288576        0.39537431
       55.59009       25.45021374        0.40923433
       55.68978       25.77504764        0.42173822
       55.78948       26.01006008        0.36965089
       55.88917       27.65223844        0.38207337
       55.98886       29.42125145        0.39809581
       56.08856       32.43541621        0.43244725
       56.18825       34.96704106        0.48552965
       56.28794       37.98040156        0.46233271
       56.38764       40.79481948        0.49493248
       56.48733       42.37834286        0.51063755
       56.58702       43.36157129        0.53092577
       56.68672       43.41380892        0.54856828
       56.78641       44.05947143        0.47737995
       56.88610       44.41315159        0.48421651
       56.98580       42.35684289        0.47301210
       57.08549       42.01787571        0.49993813
       57.18518       39.94893783        0.50490769
       57.28488       37.55665888        0.45475129
       57.38457       34.98864382        0.46459453
       57.48426       32.71302157        0.45859964
       57.58396       29.74698755        0.44937931
       57.68365       29.21753634        0.45123091
       57.78334       27.32633018        0.38156515
       57.88304       26.22387158        0.37805875
       57.98273       26.20372927        0.38344693
       58.08242       25.18795591        0.40480560
       58.18212       25.17535917        0.41282149
       58.28181       25.06869882        0.38648227
       58.38150       26.42529115        0.41816959
       58.48120       26.88650502        0.43239452
       58.58089       29.52284599        0.45943292
       58.68058       30.74362927        0.45882498
       58.78028       34.75365569        0.42587040
       58.87997       42.69107620        0.46390901
       58.97966       55.62412051        0.54915612
       59.07936       65.80203239        0.63771601
       59.17905       75.93362509        0.69639969
       59.27874       84.09532587        0.69891585
       59.37844       88.22217672        0.74065614
       59.47813       89.11076168        0.77547208
       59.57782       82.30771393        0.77682980
       59.67752       75.04192325        0.68887647
       59.77721       61.24361642        0.56980992
       59.87690       47.18131851        0.49454475
       59.97660       37.55379137        0.46176827
       60.07629       31.89893331        0.46134256
       60.17598       29.18035825        0.42283445
       60.27568       26.82405946        0.39337334
       60.37537       25.32172146        0.38890852
       60.47507       24.92240457        0.40094142
       60.57476       24.57096823        0.43694754
       60.67445       24.66629785        0.37463408
       60.77415       24.28513454        0.35293024
       60.87384       23.84713059        0.34515078
       60.97353       24.46346164        0.36930194
       61.07323       24.49775656        0.41657280
       61.17292       24.60148089        0.36082009
       61.27261       23.72145626        0.36598097
       61.37231       23.94365726        0.38036553
       61.47200       23.74848988        0.39417650
       61.57169       23.51115242        0.44593037
       61.67139       23.47954470        0.36394787
       61.77108       23.23836445        0.35476356
       61.87077       23.31935550        0.35285811
       61.97047       23.93938004        0.37060846
       62.07016       23.37703821        0.41455322
       62.16985       23.62857997        0.36509509
       62.26955       23.62295976        0.37891030
       62.36924       23.26511637        0.38861454
       62.46893       23.53029388        0.40577002
       62.56863       23.62714427        0.45742293
       62.66832       23.57153960        0.37091867
       62.76801       23.10567871        0.35776282
       62.86771       23.88624902        0.35527818
       62.96740       23.35809639        0.36085231
       63.06709       23.17830501        0.40051095
       63.16679       23.41042635        0.35509213
       63.26648       22.88643457        0.36263730
       63.36617       23.26280909        0.38152155
       63.46587       23.96588682        0.40103240
       63.56556       23.43258784        0.42238310
       63.66525       23.82003092        0.36022422
       63.76495       23.55780144        0.34773842
       63.86464       23.83245805        0.34761991
       63.96433       23.25433478        0.35889099
       64.06403       23.42118453        0.38447156
       64.16372       23.66514050        0.35927941
       64.26341       23.42959931        0.37486356
       64.36311       23.97428408        0.38702427
       64.46280       23.79252910        0.40705622
       64.56249       24.79751158        0.42205547
       64.66219       24.17460804        0.36399668
       64.76188       24.26256133        0.35923796
       64.86157       24.34718996        0.35797912
       64.96127       25.10952016        0.38256263
       65.06096       25.16568450        0.41590976
       65.16066       24.89325945        0.37516524
       65.26035       25.82766200        0.38996935
       65.36004       25.80450022        0.40558577
       65.45974       26.63366174        0.42525386
       65.55943       27.31750611        0.44998632
       65.65912       27.00141889        0.38734482
       65.75882       29.99044537        0.40466084
       65.85851       31.42217515        0.41470523
       65.95820       34.67628481        0.45925461
       66.05790       38.31494173        0.49946686
       66.15759       41.86117488        0.49624773
       66.25728       45.66214480        0.53374717
       66.35698       51.52021064        0.58947876
       66.45667       57.83220885        0.66319039
       66.55636       64.54693582        0.69842769
       66.65606       75.71594018        0.67343542
       66.75575      101.58399053        0.77130037
       66.85544      139.65611653        0.90429673
       66.95514      193.38618013        1.11751746
       67.05483      256.92060807        1.31062817
       67.15452      341.95066334        1.45924988
       67.25422      437.82982256        1.75771337
       67.35391      518.14307497        2.02758378
       67.45360      586.00695441        2.31179784
       67.55330      637.58029939        2.34844345
       67.65299      684.93850760        2.21472177
       67.75268      697.31775180        2.21150419
       67.85238      682.95808165        2.20505950
       67.95207      634.56285140        2.25087776
       68.05176      577.34095226        2.01061459
       68.15146      490.34648983        1.80076135
       68.25115      407.68618220        1.71765938
       68.35084      345.10747774        1.64082384
       68.45054      305.60480913        1.69684478
       68.55023      265.68385368        1.35287107
       68.64992      209.66115345        1.10305033
       68.74962      153.01065165        0.93999723
       68.84931      109.11109275        0.79743940
       68.94900       85.35733051        0.79337742
       69.04870       60.57478896        0.55924094
       69.14839       46.06633651        0.50416270
       69.24808       39.42965816        0.50230970
       69.34778       34.30736097        0.48255714
       69.44747       32.29657824        0.54065965
       69.54716       30.35411170        0.40831873
       69.64686       28.22868091        0.38734474
       69.74655       27.17239297        0.38192800
       69.84625       27.24879644        0.39147189
       69.94594       26.91218356        0.43907365
       70.04563       26.40311640        0.36091844
       70.14533       26.81030271        0.37960321
       70.24502       26.53988852        0.40332970
       70.34471       26.87339444        0.42901977
       70.44441       27.44287823        0.50925233
       70.54410       28.23899038        0.40396549
       70.64379       28.96396408        0.40660819
       70.74349       29.51725675        0.41657077
       70.84318       30.99308094        0.44715254
       70.94287       30.56497137        0.49014028
       71.04257       31.17211504        0.40859465
       71.14226       30.73418592        0.42024115
       71.24195       29.33267319        0.43102949
       71.34165       27.12695420        0.43738189
       71.44134       26.97634066        0.48550405
       71.54103       26.14877150        0.38891344
       71.64073       25.43082665        0.37619256
       71.74042       25.15001614        0.37003484
       71.84011       24.76301956        0.38074436
       71.93981       25.55509511        0.42074098
       72.03950       25.28924204        0.35289596
       72.13919       24.26862670        0.36011056
       72.23889       24.49642567        0.37598577
       72.33858       23.36205732        0.40903909
       72.43827       23.23697348        0.44842590
       72.53797       23.87451883        0.37031901
       72.63766       23.72299603        0.36223105
       72.73735       23.33984596        0.35029327
       72.83705       23.94982552        0.37381178
       72.93674       24.97820722        0.40515816
       73.03643       25.48996243        0.35389320
       73.13613       26.34495269        0.37785297
       73.23582       28.09490775        0.41151217
       73.33551       30.52207808        0.47546634
       73.43521       30.82639526        0.51896541
       73.53490       31.61693465        0.42379627
       73.63459       32.16635547        0.42043999
       73.73429       33.26916937        0.42437210
       73.83398       35.22713459        0.46248311
       73.93367       36.19579057        0.49288833
       74.03337       35.78791887        0.43175072
       74.13306       35.78923349        0.45479117
       74.23276       36.84940727        0.48259814
       74.33245       35.20518722        0.51829330
       74.43214       35.75286302        0.53959536
       74.53184       35.84078225        0.45855964
       74.63153       35.39766292        0.45215347
       74.73122       32.56705956        0.43022848
       74.83092       30.06759185        0.43680235
       74.93061       28.14803540        0.42776777
       75.03030       26.61543005        0.37500660
       75.13000       24.28562909        0.37028415
       75.22969       22.65490720        0.37259304
       75.32938       22.24355698        0.40439469
       75.42908       21.40676200        0.40169948
       75.52877       21.53719890        0.34945961
       75.62846       21.00949233        0.34280153
       75.72816       20.48817363        0.33864210
       75.82785       21.20150516        0.37326320
       75.92754       20.60977077        0.34794263
       76.02724       20.77771368        0.32593450
       76.12693       19.96672631        0.33230043
       76.22662       20.05849386        0.35142949
       76.32632       20.62928635        0.40247470
       76.42601       19.43460791        0.36547835
       76.52570       19.84154347        0.33962081
       76.62540       20.54477972        0.34528664
       76.72509       20.99052496        0.34608354
       76.82478       20.69844830        0.39654511
       76.92448       20.75542790        0.31557546
       77.02417       20.07303923        0.32092439
       77.12386       19.47466150        0.33135374
       77.22356       20.18611360        0.35790088
       77.32325       19.70202907        0.43231203
       77.42294       20.20676984        0.35050218
       77.52264       20.41316310        0.34574351
       77.62233       20.72115321        0.34662990
       77.72202       19.68424915        0.33699038
       77.82172       20.20883051        0.39895402
       77.92141       20.54501311        0.30839980
       78.02110       20.12187483        0.32853636
       78.12080       19.84187425        0.34602041
       78.22049       20.16649477        0.37102852
       78.32018       19.97158055        0.43002157
       78.41988       19.92047976        0.33946418
       78.51957       20.18785798        0.35210134
       78.61926       20.09121747        0.34885959
       78.71896       19.72387313        0.34626555
       78.81865       19.64905590        0.38508009
       78.91835       19.55186381        0.29618356
       79.01804       20.02951539        0.33009498
       79.11773       20.53054107        0.35021922
       79.21743       21.01927677        0.37883741
       79.31712       20.74402320        0.42374765
       79.41681       20.77168730        0.34193146
       79.51651       21.57903208        0.35475305
       79.61620       21.95475421        0.35816078
       79.71589       23.80025408        0.38642973
       79.81559       25.60960985        0.42373582
       79.91528       27.33857044        0.37214723
       80.01497       30.30277782        0.40847193
       80.11467       32.29989692        0.43945396
       80.21436       32.73751998        0.47212521
       80.31405       33.72725777        0.56904247
       80.41375       34.54850342        0.44076920
       80.51344       35.22275115        0.44300262
       80.61313       35.31514519        0.45552437
       80.71283       34.69870703        0.46919715
       80.81252       33.91997105        0.52266460
       80.91221       33.65074576        0.38840496
       81.01191       31.44253719        0.40223775
       81.11160       29.14321516        0.41695351
       81.21129       26.47887285        0.42896158
       81.31099       24.50564927        0.45941418
       81.41068       22.82444413        0.34515433
       81.51037       21.72243162        0.34532440
       81.61007       21.33861818        0.36149478
       81.70976       21.36475163        0.37491130
       81.80945       20.35154845        0.38908670
       81.90915       20.65104138        0.29859016
       82.00884       20.25799067        0.31648975
       82.10853       20.64996022        0.35605959
       82.20823       19.62558682        0.38389221
       82.30792       19.93796787        0.40460904
       82.40761       19.53625070        0.32728532
       82.50731       20.27027972        0.33733742
       82.60700       19.93258667        0.35821442
       82.70669       19.51018333        0.38588910
       82.80639       19.86284282        0.37110377
       82.90608       20.51410998        0.30567056
       83.00577       20.12397942        0.32020935
       83.10547       20.88367638        0.38312141
       83.20516       20.50302727        0.42527849
       83.30485       21.07146553        0.41201293
       83.40455       21.19444571        0.34483152
       83.50424       21.39588431        0.33631505
       83.60394       21.51833779        0.37136261
       83.70363       21.59682303        0.41818015
       83.80332       22.03257956        0.36963926
       83.90302       22.53551763        0.31250718
       84.00271       23.04376779        0.32894530
       84.10240       24.61098595        0.41166248
       84.20210       24.46191589        0.49851539
       84.30179       24.10977272        0.40248714
       84.40148       24.46691380        0.35614651
       84.50118       24.41622209        0.34939512
       84.60087       24.77597851        0.39670379
       84.70056       24.61354882        0.51424630
       84.80026       24.13694031        0.35575937
       84.89995       24.14236864        0.32116590
       84.99964       23.58797517        0.33040863
       85.09934       22.28596894        0.37835523
       85.19903       21.74033650        0.63982673
       85.29872       21.39628057        0.33392610
       85.39842       20.93134738        0.33565535
       85.49811       19.75178821        0.31669604
       85.59780       19.22735656        0.34998127
       85.69750       19.97295009        0.64172741
       85.79719       19.95257175        0.30632264
       85.89688       19.42719454        0.29517555
       85.99658       19.60362663        0.30354166
       86.09627       19.48720645        0.34681660
       86.19596       20.56395898        0.68765912
       86.29566       19.48421034        0.31499546
       86.39535       19.53191875        0.31872281
       86.49504       19.58293207        0.31409586
       86.59474       20.00426178        0.34321746
       86.69443       20.88411410        0.73486930
       86.79412       20.65366981        0.30416305
       86.89382       19.94161940        0.29106216
       86.99351       21.11864799        0.31107443
       87.09320       21.72329789        0.34991462
       87.19290       20.60283889        0.80825248
       87.29259       20.75496252        0.32660989
       87.39228       22.45996031        0.34812653
       87.49198       23.35123991        0.34785584
       87.59167       22.93777603        0.34890299
       87.69136       23.47689965        1.05598482
       87.79106       22.74652525        0.32228312
       87.89075       23.33083216        0.32380920
       87.99044       22.50875931        0.32915236
       88.09014       22.88733583        0.35253198
       88.18983       21.14734496        1.80292399
       88.28953       22.56393715        0.35653792
       88.38922       22.09729386        0.35620670
       88.48891       21.25317357        0.33352958
       88.58861       20.20915424        0.31387741
       88.68830       21.85808983        2.55869064
       88.78799       20.65995076        0.30622453
       88.88769       19.61918199        0.28993304
       88.98738       20.01093114        0.30567835
       89.08707       19.42333434        0.31165129
       89.18677       16.42711126        2.33394317
       89.28646       19.44821012        0.31596041
       89.38615       19.30634646        0.31592875
       89.48585       19.07486368        0.30807411
       89.58554       19.29618008        0.30232181
       89.68523       21.40310536        2.57451840
       89.78493       19.03465815        0.28998986
       89.88462       19.67965715        0.29233753
       89.98431       19.63827664        0.30139359
       90.08401       19.33459991        0.30760125
       90.18370       21.94188984        2.71397389
       90.28339       19.68927971        0.31663899
       90.38309       19.44028412        0.31948256
       90.48278       20.28260355        0.31907919
       90.58247       20.29058514        0.31399947
       90.68217       17.81927241        2.32186929
       90.78186       20.53852180        0.30643923
       90.88155       20.44378271        0.29810298
       90.98125       20.82275967        0.30925281
       91.08094       20.49310101        0.31658909
       91.18063       18.36385323        2.38812862
       91.28033       21.48814720        0.33318815
       91.38002       20.89930046        0.33560489
       91.47971       22.29371324        0.33834207
       91.57941       22.91018578        0.33664506
       91.67910       26.86524315        2.76399679
       91.77879       24.05776219        0.33049138
       91.87849       25.53755965        0.33355628
       91.97818       29.28022538        0.37114775
       92.07787       32.49561240        0.40585290
       92.17757       33.90734634        3.14912681
       92.27726       37.00385512        0.44644097
       92.37695       43.51455387        0.50046245
       92.47665       52.63202759        0.52980459
       92.57634       67.83593576        0.58052637
       92.67603       76.02610017        4.02222567
       92.77573       90.36825434        0.64829912
       92.87542      120.00780201        0.73571706
       92.97512      147.67593960        0.85402258
       93.07481      169.33976662        1.04680026
       93.17450      176.14840114        2.01640148
       93.27420      192.90585528        1.04640068
       93.37389      211.59380550        1.06985810
       93.47358      227.50243719        1.11865820
       93.57328      246.17532659        1.35161870
       93.67297      251.39953280        1.84352930
       93.77266      268.17197323        1.18316589
       93.87236      273.91161652        1.13609622
       93.97205      281.97811499        1.21551425
       94.07174      279.23109896        1.58171342
       94.17144      280.41348729        1.81150669
       94.27113      268.94521116        1.30929839
       94.37082      253.46400337        1.22801978
       94.47052      238.27587148        1.14015774
       94.57021      227.95032728        1.46812818
       94.66990      221.35816202        1.45797870
       94.76960      212.23321834        1.10276995
       94.86929      205.11785268        0.99484830
       94.96898      191.55992359        0.97330947
       95.06868      173.32530324        1.05857149
       95.16837      165.71124899        1.41080524
       95.26806      158.62498815        1.06457667
       95.36776      145.32024141        0.92083444
       95.46745      133.35969182        0.84507230
       95.56714      120.82146541        0.91999542
       95.66684      114.34769472        1.01135373
       95.76653      109.56157854        0.82193021
       95.86622       93.51259016        0.64432915
       95.96592       76.20258880        0.59755872
       96.06561       63.96443665        0.69961282
       96.16530       57.02960456        0.70019734
       96.26500       49.91219068        0.58783606
       96.36469       43.98113598        0.49151703
       96.46438       39.55145051        0.45304227
       96.56408       38.27178291        0.55641058
       96.66377       36.50763199        0.52765695
       96.76346       34.78268763        0.45867751
       96.86316       32.32395234        0.38133441
       96.96285       32.43854202        0.39409430
       97.06254       31.89252838        0.52656402
       97.16224       31.89475610        0.50392725
       97.26193       31.49637828        0.46828233
       97.36162       33.48503578        0.45204414
       97.46132       33.17789364        0.41796948
       97.56101       32.42580870        0.52173567
       97.66071       32.29615272        0.46590397
       97.76040       30.94097053        0.41440349
       97.86009       29.82348047        0.36661781
       97.95979       28.97443756        0.36718949
       98.05948       29.36014550        0.51696842
       98.15917       28.41451870        0.45409274
       98.25887       27.57886836        0.42979415
       98.35856       28.10302085        0.40786363
       98.45825       27.41654177        0.37448774
       98.55795       27.30143352        0.48757629
       98.65764       26.66073557        0.41281735
       98.75733       25.97409840        0.37880532
       98.85703       24.46104521        0.34256072
       98.95672       24.55410113        0.34448550
       99.05641       24.09264878        0.47578491
       99.15611       23.63190482        0.40415556
       99.25580       23.69683743        0.39032987
       99.35549       23.59513044        0.37007911
       99.45519       22.83854176        0.33893923
       99.55488       23.61776692        0.46013710
       99.65457       22.90563034        0.37316758
       99.75427       22.74822420        0.34823167
       99.85396       23.56389823        0.34151901
       99.95365       22.39335590        0.32624490
      100.05335       22.76428149        0.46626974
      100.15304       22.43795998        0.38875527
      100.25273       22.31334269        0.38314266
      100.35243       21.07774455        0.36953839
      100.45212       21.59466110        0.34120935
      100.55181       20.95278253        0.44233794
      100.65151       21.66707986        0.36790182
      100.75120       21.70680909        0.34284096
      100.85089       21.81893141        0.32777399
      100.95059       20.81449817        0.31091304
      101.05028       20.22181933        0.43711606
      101.14997       20.98691646        0.36696418
      101.24967       20.96548810        0.36140305
      101.34936       19.83773106        0.35298685
      101.44905       20.06374488        0.33670153
      101.54875       20.67782389        0.42960108
      101.64844       20.15092008        0.34500679
      101.74813       20.11767185        0.32328882
      101.84783       19.11429966        0.30536891
      101.94752       19.58235268        0.32563750
      102.04722       19.57673902        0.39127014
      102.14691       19.84678076        0.35465442
      102.24660       19.87867797        0.35202325
      102.34630       20.12880426        0.35692814
      102.44599       19.27060281        0.35425497
      102.54568       19.71293399        0.37509400
      102.64538       19.15835096        0.32965066
      102.74507       18.92885444        0.31120202
      102.84476       19.13146903        0.30648001
      102.94446       19.38001675        0.34986782
      103.04415       19.14233033        0.37138682
      103.14384       19.15158588        0.34810950
      103.24354       19.30362558        0.34465845
      103.34323       19.06200903        0.33907893
      103.44292       19.17446580        0.36798933
      103.54262       19.08909864        0.35638021
      103.64231       18.86277501        0.32161559
      103.74200       19.37282120        0.31037217
      103.84170       19.11339549        0.30225076
      103.94139       19.20895596        0.36801353
      104.04108       18.70899818        0.35170927
      104.14078       19.38235735        0.34679935
      104.24047       19.51530321        0.34709546
      104.34016       19.09251399        0.34475401
      104.43986       18.19225089        0.38317668
      104.53955       18.41272377        0.34756492
      104.63924       18.60808323        0.32765844
      104.73894       19.20700314        0.31997082
      104.83863       19.86046689        0.31587269
      104.93832       20.00302636        0.38388010
      105.03802       19.10012846        0.35202416
      105.13771       19.31998549        0.34065449
      105.23740       19.29287790        0.33910968
      105.33710       19.05649329        0.33775629
      105.43679       18.74416210        0.38994217
      105.53648       19.74572755        0.36013377
      105.63618       19.58329047        0.32987725
      105.73587       19.84613870        0.31770148
      105.83556       20.07517639        0.31069029
      105.93526       20.07916734        0.39302134
      106.03495       19.88010951        0.35413679
      106.13464       19.47486650        0.33826066
      106.23434       19.81620618        0.34323034
      106.33403       19.86819578        0.34739878
      106.43372       20.65296338        0.42370463
      106.53342       20.18659680        0.36488900
      106.63311       20.40814415        0.33360748
      106.73281       19.94511644        0.31319201
      106.83250       19.93009287        0.30767027
      106.93219       19.81969481        0.39704550
      107.03189       19.92804785        0.35281474
      107.13158       19.79417102        0.34056101
      107.23127       19.57890844        0.34498575
      107.33097       19.86224855        0.34765562
      107.43066       19.73345087        0.41747756
      107.53035       19.21415192        0.35403043
      107.63005       18.98790305        0.32022418
      107.72974       19.26208935        0.30903396
      107.82943       19.02387494        0.30277318
      107.92913       19.58082961        0.40608229
      108.02882       19.47850742        0.35506134
      108.12851       19.25810016        0.33746335
      108.22821       19.63581878        0.33596704
      108.32790       19.71096050        0.33228088
      108.42759       19.39929807        0.41795093
      108.52729       19.58916011        0.35612963
      108.62698       19.77789828        0.32350507
      108.72667       19.79980728        0.31025074
      108.82637       20.83091487        0.32610648
      108.92606       20.37874275        0.41055381
      109.02575       21.33834895        0.36760983
      109.12545       21.14672254        0.35637467
      109.22514       22.75164579        0.36880658
      109.32483       22.43322403        0.39822101
      109.42453       23.20657432        0.42705017
      109.52422       23.59286460        0.38847103
      109.62391       22.82380248        0.36293885
      109.72361       23.98875636        0.35637054
      109.82330       25.26341967        0.34417512
      109.92299       24.69436417        0.44247144
      110.02269       25.15470876        0.38942603
      110.12238       25.62012391        0.39016666
      110.22207       25.55351394        0.38629560
      110.32177       25.97193494        0.39703611
      110.42146       25.52028800        0.47692804
      110.52115       25.77964270        0.40785993
      110.62085       27.31606177        0.39744865
      110.72054       27.35767923        0.37345609
      110.82023       25.79776375        0.37312865
      110.91993       25.56877431        0.43155038
      111.01962       26.01348178        0.40221332
      111.11931       25.76038757        0.40210315
      111.21901       25.36001224        0.39095499
      111.31870       25.04867973        0.42078863
      111.41840       25.15983012        0.43905562
      111.51809       24.14822652        0.39233450
      111.61778       23.96265421        0.36797378
      111.71748       23.30309190        0.33628209
      111.81717       23.24639799        0.36353109
      111.91686       22.51811118        0.37600590
      112.01656       22.15054260        0.36408375
      112.11625       22.56362594        0.36977209
      112.21594       22.39577761        0.36763066
      112.31564       22.28928405        0.40651182
      112.41533       22.24815847        0.39878167
      112.51502       21.78734321        0.36274491
      112.61472       22.24938982        0.34932220
      112.71441       21.65221461        0.32446933
      112.81410       20.78494381        0.35531224
      112.91380       21.73247009        0.36974514
      113.01349       20.27878288        0.35025044
      113.11318       21.40183279        0.36017097
      113.21288       22.01620215        0.36476348
      113.31257       20.82014829        0.39187441
      113.41226       19.92550592        0.36350641
      113.51196       19.39572204        0.33715516
      113.61165       20.06361486        0.33099064
      113.71134       19.90530214        0.31396533
      113.81104       19.03664389        0.35174684
      113.91073       19.51458143        0.34723107
      114.01042       19.22198260        0.34169142
      114.11012       18.69259114        0.33635374
      114.20981       19.32778191        0.34352679
      114.30950       18.62569876        0.38206821
      114.40920       18.75017007        0.35388196
      114.50889       19.12728039        0.33460775
      114.60858       19.00927748        0.32348781
      114.70828       18.81992146        0.31098308
      114.80797       19.03834475        0.35650953
      114.90766       19.33545830        0.33817454
      115.00736       19.20893900        0.33478531
      115.10705       19.05359854        0.33447706
      115.20674       19.20137594        0.34102514
      115.30644       18.48379288        0.38321464
      115.40613       18.25860148        0.34540992
      115.50582       18.91615219        0.33267853
      115.60552       18.76383135        0.32080124
      115.70521       19.02122291        0.31094594
      115.80490       18.64501393        0.35818646
      115.90460       19.13368112        0.32826744
      116.00429       18.61366582        0.32754898
      116.10399       19.05751036        0.33358957
      116.20368       18.75795600        0.33827658
      116.30337       18.35721123        0.39971041
      116.40307       18.92521017        0.35483262
      116.50276       19.13074279        0.33795776
      116.60245       19.40993243        0.32727778
      116.70215       19.19966040        0.31362302
      116.80184       19.91155409        0.37894248
      116.90153       18.84818905        0.33178983
      117.00123       18.83809547        0.32875591
      117.10092       19.20301835        0.34066828
      117.20061       19.67520733        0.35011502
      117.30031       19.99606281        0.42441418
      117.40000       20.26346070        0.35791581
      117.49969       20.82906222        0.34448324
      117.59939       20.12035294        0.32301874
      117.69908       20.11594111        0.31266457
      117.79877       20.64673805        0.38847531
      117.89847       20.81393485        0.33868443
      117.99816       21.72066012        0.35108847
      118.09785       22.68840913        0.36760808
      118.19755       23.81341566        0.39352000
      118.29724       25.37350676        0.44287032
      118.39693       24.99326175        0.40090112
      118.49663       28.08547958        0.39995722
      118.59632       29.33667750        0.39348136
      118.69601       32.67924054        0.43430343
      118.79571       34.58481660        0.48351116
      118.89540       36.96593220        0.46747731
      118.99509       42.11071454        0.49953679
      119.09479       47.17616828        0.53333031
      119.19448       52.06724371        0.61076189
      119.29417       59.08978743        0.67749133
      119.39387       65.73740325        0.65854367
      119.49356       74.63252297        0.66108077
      119.59325       87.88977804        0.69983681
      119.69295       98.86798250        0.78684312
      119.79264      110.49774251        0.84435475
      119.89233      122.68445987        0.86410937
      119.99203      136.45139975        0.89206603
      120.09172      149.97322282        0.95655632
      120.19141      157.17556989        1.10007470
      120.29111      165.74345923        1.11783907
      120.39080      176.62497048        1.10462651
      120.49049      186.51597401        1.06086000
      120.59019      196.93288998        1.06122321
      120.68988      206.29277892        1.17251677
      120.78958      214.93186083        1.17052161
      120.88927      224.39966305        1.17823140
      120.98896      227.50437483        1.17454723
      121.08866      234.91278372        1.20025336
      121.18835      241.85077746        1.40103635
      121.28804      248.30025157        1.38533621
      121.38774      253.27629919        1.32832572
      121.48743      253.36430183        1.25778369
      121.58712      255.23388789        1.20390324
      121.68682      252.60150853        1.31842084
      121.78651      252.79949060        1.25861337
      121.88620      249.02987549        1.23284959
      121.98590      239.10235354        1.21321821
      122.08559      230.23685484        1.21169889
      122.18528      226.29691634        1.40159666
      122.28498      222.93056522        1.30558843
      122.38467      209.94032123        1.20901829
      122.48436      198.17101716        1.10817859
      122.58406      184.72480198        1.00974937
      122.68375      174.01681765        1.10756489
      122.78344      161.12077140        0.99815773
      122.88314      151.10674956        0.95805032
      122.98283      140.31453990        0.94123537
      123.08252      130.42336188        0.90257628
      123.18222      121.98043465        1.01480905
      123.28191      114.57216666        0.88991905
      123.38160      106.84077410        0.82839863
      123.48130       98.27837357        0.76345721
      123.58099       88.97349251        0.67721921
      123.68068       82.16282781        0.74136269
      123.78038       77.05350784        0.64758447
      123.88007       71.11335201        0.61007453
      123.97976       63.43100924        0.58459284
      124.07946       57.39008491        0.54900650
      124.17915       52.81672270        0.59247237
      124.27884       50.01475344        0.51588307
      124.37854       45.22580624        0.46097321
      124.47823       42.03205166        0.43464997
      124.57792       38.63376833        0.44372201
