        5.04553       64.02294486        3.01081649
        5.14523       59.46748356        2.77593763
        5.24492       60.69003828        2.76581810
        5.34461       62.81026384        2.59053353
        5.44431       58.16691543        2.72620415
        5.54400       58.87972250        2.28626788
        5.64369       57.43751799        2.26912788
        5.74339       57.82267246        2.04062022
        5.84308       58.13553264        2.07095133
        5.94277       58.30695401        2.06865393
        6.04247       61.66338440        2.06381848
        6.14216       54.46564188        1.78508929
        6.24185       58.72775379        1.91045978
        6.34155       56.54571207        1.78841930
        6.44124       61.44408521        1.96569280
        6.54093       57.92648169        1.80944347
        6.64063       58.72256789        1.72688189
        6.74032       59.66918403        1.74084046
        6.84001       58.63745360        1.71584811
        6.93971       57.88641564        1.71954139
        7.03940       57.83083760        1.60106780
        7.13909       58.14565720        1.59829396
        7.23879       58.61234702        1.58203709
        7.33848       60.99741478        1.63894770
        7.43817       59.63011508        1.58619201
        7.53787       58.36313652        1.54888440
        7.63756       62.77554660        1.53226442
        7.73725       59.85367024        1.55543294
        7.83695       59.73504516        1.50327527
        7.93664       58.91404999        1.55736638
        8.03633       62.78285196        1.44775731
        8.13603       60.83013973        1.40832161
        8.23572       60.95387216        1.43748121
        8.33541       61.90274475        1.43428045
        8.43511       60.91418743        1.50534398
        8.53480       63.08012900        1.41952763
        8.63449       60.68517626        1.37932869
        8.73419       62.04372810        1.36172230
        8.83388       63.10684140        1.38113674
        8.93357       63.14396300        1.37846526
        9.03327       65.63627729        1.36887178
        9.13296       62.49708024        1.32867727
        9.23265       65.60881578        1.37838664
        9.33235       64.68987973        1.40884548
        9.43204       65.58568058        1.41310968
        9.53174       66.81154494        1.37060713
        9.63143       66.69968055        1.41537950
        9.73112       65.16892157        1.39914353
        9.83082       68.80300294        1.50022374
        9.93051       67.99290121        1.46913524
       10.03020       70.08065272        1.44187369
       10.12990       69.01879283        1.39662937
       10.22959       70.23617756        1.46614800
       10.32928       73.14367115        1.55892870
       10.42898       71.90840710        1.52571554
       10.52867       71.29751524        1.46936253
       10.62836       71.08175748        1.46679124
       10.72806       71.61439083        1.49061578
       10.82775       72.34677757        1.49455064
       10.92744       74.56263046        1.53994623
       11.02714       72.50236885        1.45035323
       11.12683       74.98748559        1.52473796
       11.22652       73.55312933        1.52769433
       11.32622       78.74958770        1.62278295
       11.42591       79.68879435        1.57524727
       11.52560       79.68403229        1.55748094
       11.62530       79.22976004        1.56683280
       11.72499       82.27476368        1.62571343
       11.82468       81.69081240        1.66368396
       11.92438       83.16275013        1.59506409
       12.02407       84.97176008        1.59434656
       12.12376       82.04430506        1.57588903
       12.22346       84.97782635        1.70197685
       12.32315       89.78742077        1.76685292
       12.42284       86.83899862        1.65653913
       12.52254       89.75093388        1.67089416
       12.62223       91.19474547        1.73103610
       12.72192       88.42812426        1.65588351
       12.82162       92.83883066        1.83318464
       12.92131       95.09797914        1.70345959
       13.02100       97.28824953        1.70288288
       13.12070       95.11323186        1.71135933
       13.22039       98.71704934        1.79474844
       13.32008      100.48750727        1.87976512
       13.41978       97.74096327        1.76217534
       13.51947      101.53434436        1.82963366
       13.61916      103.35063119        1.78234606
       13.71886      104.43302233        1.87891815
       13.81855      104.17574047        1.90489100
       13.91824      108.29357107        1.82813280
       14.01794      110.71128803        1.80832840
       14.11763      109.66811085        1.86385923
       14.21733      113.53750566        1.90609078
       14.31702      112.71057670        1.99458510
       14.41671      115.42036212        1.95784088
       14.51641      118.22794012        1.92716259
       14.61610      121.74031254        1.96547243
       14.71579      121.67781156        2.00082857
       14.81549      123.40334678        2.11364574
       14.91518      122.47380755        1.92519224
       15.01487      125.17794835        1.98174678
       15.11457      126.99037437        2.01999804
       15.21426      130.71700027        2.11175451
       15.31395      127.78257123        2.14247813
       15.41365      135.04204589        2.13174096
       15.51334      133.00110201        2.05159968
       15.61303      138.52460451        2.15634423
       15.71273      135.72788872        2.09657545
       15.81242      134.30507553        2.18679375
       15.91211      138.46541118        2.14218813
       16.01181      141.11982087        2.07866190
       16.11150      140.03288760        2.13272827
       16.21119      141.24984964        2.20357329
       16.31089      137.80417542        2.17941126
       16.41058      139.82543626        2.15029719
       16.51027      142.33897577        2.20835712
       16.60997      144.98103047        2.15033274
       16.70966      146.55131321        2.21514652
       16.80935      140.45966556        2.19413738
       16.90905      141.30810754        2.13479365
       17.00874      139.32935783        2.03053403
       17.10843      140.22333607        2.15918467
       17.20813      138.88327200        2.16412076
       17.30782      137.05241163        2.16715285
       17.40751      136.80403810        2.16355311
       17.50721      132.10290126        2.05918185
       17.60690      131.27443852        2.12074395
       17.70659      126.85638836        2.09421442
       17.80629      128.42094990        2.13220717
       17.90598      127.19513064        1.98535149
       18.00567      122.14850353        1.98037353
       18.10537      118.65325079        1.89868735
       18.20506      123.89933923        2.12584479
       18.30475      114.27144969        1.94678901
       18.40445      118.44728918        1.92896706
       18.50414      114.94377846        1.96226243
       18.60383      113.42317390        1.91803394
       18.70353      110.68575603        2.00420741
       18.80322      107.14289609        1.85494407
       18.90292      110.20079708        1.86260471
       19.00261      107.39143605        1.78265906
       19.10230      104.43972574        1.87345833
       19.20200      102.73782985        1.90136726
       19.30169      102.64983393        1.83234982
       19.40138      100.70787456        1.79820865
       19.50108      100.19873606        1.83448378
       19.60077       98.94665366        1.80473277
       19.70046      100.04511773        1.90201275
       19.80016       94.81742515        1.75307242
       19.89985       91.94107448        1.67563838
       19.99954       92.20763063        1.69483050
       20.09924       88.60084308        1.68148851
       20.19893       88.86595355        1.80029284
       20.29862       88.51472673        1.70190735
       20.39832       88.94106855        1.76059459
       20.49801       85.15575943        1.68959101
       20.59770       84.71284974        1.71957075
       20.69740       82.74428259        1.75961194
       20.79709       84.67838218        1.69524109
       20.89678       83.35568706        1.63941127
       20.99648       80.91955994        1.64159585
       21.09617       82.59893298        1.73174860
       21.19586       79.83535160        1.70156496
       21.29556       79.33580817        1.65749635
       21.39525       81.78221782        1.68555313
       21.49494       75.72542717        1.59323452
       21.59464       75.92267009        1.62997187
       21.69433       75.50339118        1.69245358
       21.79402       77.72348662        1.56775803
       21.89372       74.92333150        1.50784421
       21.99341       74.58785256        1.56821309
       22.09310       72.78196810        1.55561920
       22.19280       70.83645612        1.62741163
       22.29249       71.99156813        1.53103555
       22.39218       74.76817504        1.59469787
       22.49188       69.90705073        1.54355574
       22.59157       69.88694491        1.56332812
       22.69126       67.49616893        1.61437699
       22.79096       71.46925402        1.50112729
       22.89065       69.49085727        1.44621550
       22.99034       68.66649598        1.47714730
       23.09004       69.04437010        1.54702860
       23.18973       68.20833081        1.53488209
       23.28942       68.71734281        1.51802956
       23.38912       67.28656706        1.51718735
       23.48881       65.70370469        1.50671136
       23.58851       68.23642703        1.55514597
       23.68820       67.38131810        1.62734745
       23.78789       66.17711334        1.43587427
       23.88759       65.74107106        1.45153046
       23.98728       65.96982218        1.48385229
       24.08697       65.97009602        1.45497127
       24.18667       66.37290812        1.56514325
       24.28636       61.97507322        1.43443730
       24.38605       68.04186764        1.53602373
       24.48575       64.66168586        1.49493338
       24.58544       64.53206961        1.53884142
       24.68513       64.01649450        1.53301957
       24.78483       63.77484408        1.41012871
       24.88452       64.71426339        1.41712932
       24.98421       63.82823148        1.45566527
       25.08391       65.84652518        1.50935052
       25.18360       63.92029068        1.51912102
       25.28329       62.15137099        1.44385084
       25.38299       65.08111013        1.47317310
       25.48268       64.27160919        1.47263326
       25.58237       63.50328312        1.52296773
       25.68207       64.41928659        1.50307942
       25.78176       62.92513570        1.39630470
       25.88145       63.07924287        1.43526840
       25.98115       61.26082572        1.42951382
       26.08084       64.80881426        1.50686279
       26.18053       60.41051959        1.49444726
       26.28023       62.24374740        1.43567658
       26.37992       63.86419137        1.45528877
       26.47961       61.41686735        1.47388621
       26.57931       63.59486280        1.56523968
       26.67900       63.45940757        1.46318634
       26.77869       63.48528416        1.45310782
       26.87839       66.26961026        1.46877474
       26.97808       62.90071200        1.42162920
       27.07777       64.42458384        1.55015691
       27.17747       62.31305300        1.45534463
       27.27716       63.49058672        1.43198934
       27.37685       61.99524920        1.47026757
       27.47655       64.52673478        1.47677323
       27.57624       66.06084019        1.56117504
       27.67593       63.92231542        1.50383889
       27.77563       61.91795514        1.41688552
       27.87532       63.21311176        1.40787562
       27.97501       65.59341979        1.46305541
       28.07471       66.28864334        1.55877418
       28.17440       62.33749914        1.44565583
       28.27410       65.37085221        1.47747109
       28.37379       66.40182770        1.52489911
       28.47348       63.88086356        1.48580382
       28.57318       65.04113704        1.62418449
       28.67287       68.09656924        1.48188941
       28.77256       66.64879925        1.43902567
       28.87226       65.76691692        1.46456874
       28.97195       67.52963405        1.48978162
       29.07164       64.35654431        1.58289812
       29.17134       65.99931080        1.46038242
       29.27103       67.18783233        1.49732081
       29.37072       66.26277924        1.54815809
       29.47042       70.74202561        1.57685693
       29.57011       67.56351668        1.63062422
       29.66980       68.30890710        1.49511482
       29.76950       66.80710061        1.47769262
       29.86919       67.71858808        1.45801852
       29.96888       68.22183983        1.53035348
       30.06858       67.76519737        1.57479888
       30.16827       67.86637081        1.49092238
       30.26796       65.72388362        1.46871629
       30.36766       68.52375292        1.53041629
       30.46735       70.40371447        1.56472900
       30.56704       70.38813606        1.64620006
       30.66674       69.88105484        1.53117565
       30.76643       68.13067831        1.47602258
       30.86612       72.25574834        1.55167019
       30.96582       71.64969872        1.55632428
       31.06551       67.50074636        1.58392750
       31.16520       70.42572041        1.52123201
       31.26490       70.77328182        1.51282506
       31.36459       69.89885515        1.52468480
       31.46428       69.85622352        1.58849843
       31.56398       72.07272445        1.63202335
       31.66367       72.96557585        1.53490879
       31.76336       73.98153856        1.54631430
       31.86306       71.36506167        1.50307454
       31.96275       74.03815970        1.56424539
       32.06244       75.04824114        1.62952906
       32.16214       74.11278000        1.52103779
       32.26183       76.14766891        1.57982347
       32.36152       77.84210787        1.65598653
       32.46122       80.61623072        1.71022244
       32.56091       81.83988952        1.75703881
       32.66060       78.87569527        1.64145720
       32.76030       90.98741615        1.72719751
       32.85999       97.22547103        1.81371991
       32.95969      109.48473934        1.94500192
       33.05938      140.70922604        2.24611146
       33.15907      189.39193286        2.46152373
       33.25877      273.61400818        3.05554277
       33.35846      425.11688315        3.84850867
       33.45815      638.03408952        4.93959669
       33.55785      864.34149991        5.81126571
       33.65754     1147.20324657        6.31146089
       33.75723     1406.80558122        7.05965799
       33.85693     1372.05711607        6.98619853
       33.95662     1147.19550492        6.51644814
       34.05631      852.53987017        5.51515594
       34.15601      523.17636284        4.18615559
       34.25570      313.78885566        3.22185838
       34.35539      198.87650104        2.61831617
       34.45509      130.62403483        2.23796621
       34.55478      101.74730892        1.85949684
       34.65447       84.44533282        1.62898742
       34.75417       80.70127144        1.61979492
       34.85386       78.72127581        1.58082238
       34.95355       74.51291049        1.58760896
       35.05325       71.65541435        1.60994030
       35.15294       72.03518511        1.52319028
       35.25263       68.50346393        1.51121210
       35.35233       69.09919042        1.56180659
       35.45202       67.86127119        1.61661319
       35.55171       69.15112562        1.59098025
       35.65141       64.08734088        1.47875373
       35.75110       60.61428330        1.42538444
       35.85079       61.19651528        1.42569582
       35.95049       62.08285883        1.47213807
       36.05018       62.08183279        1.44824373
       36.14987       59.64767177        1.36408058
       36.24957       59.05615253        1.41690950
       36.34926       61.60898168        1.47538062
       36.44895       53.72055858        1.40225438
       36.54865       58.08944821        1.40242471
       36.64834       56.07118090        1.34825469
       36.74803       54.10158311        1.34285965
       36.84773       54.83876310        1.34427818
       36.94742       54.86319228        1.45637862
       37.04711       53.70762365        1.26876239
       37.14681       53.56995360        1.29508209
       37.24650       51.00155652        1.29560180
       37.34619       53.07938768        1.35683807
       37.44589       52.34432421        1.44160674
       37.54558       53.50505874        1.32895574
       37.64528       49.88583160        1.28410143
       37.74497       50.89822997        1.27562522
       37.84466       53.87444671        1.38996991
       37.94436       48.79727053        1.34903657
       38.04405       50.48617358        1.24125391
       38.14374       49.91420242        1.24487505
       38.24344       50.55273690        1.27204798
       38.34313       53.21744668        1.36202055
       38.44282       51.35646272        1.44774639
       38.54252       50.19214066        1.28251482
       38.64221       52.81313326        1.31450964
       38.74190       55.84582941        1.36520810
       38.84160       61.79963778        1.44017739
       38.94129       66.59133243        1.56896284
       39.04098       73.98428705        1.48651828
       39.14068       79.68529201        1.60250047
       39.24037       83.15004661        1.63636392
       39.34006       77.65153449        1.64124320
       39.43976       76.41445921        1.77349588
       39.53945       68.65409887        1.50505366
       39.63914       59.77489101        1.39915751
       39.73884       55.34922901        1.35142909
       39.83853       50.66399295        1.28339637
       39.93822       51.69548397        1.37388542
       40.03792       48.70703167        1.21704531
       40.13761       49.84937424        1.23488024
       40.23730       51.21971276        1.29774886
       40.33700       48.96653413        1.30750557
       40.43669       51.33383933        1.39965520
       40.53638       51.49068389        1.30280985
       40.63608       52.20519270        1.33617923
       40.73577       50.58922227        1.30803173
       40.83546       50.05199032        1.31263508
       40.93516       51.30859692        1.35476794
       41.03485       50.84370055        1.27204012
       41.13454       47.61425355        1.23282435
       41.23424       48.74364812        1.27732781
       41.33393       47.66083570        1.31974596
       41.43362       49.31072216        1.38551422
       41.53332       50.04538699        1.30361692
       41.63301       50.76452856        1.33807730
       41.73270       49.53452836        1.29265534
       41.83240       48.54783230        1.31845621
       41.93209       48.30271045        1.30649962
       42.03179       47.40741559        1.18121815
       42.13148       47.60823379        1.24376558
       42.23117       47.11185532        1.23777699
       42.33087       48.53412053        1.34424282
       42.43056       46.80415952        1.29321074
       42.53025       48.85625777        1.27851963
       42.62995       48.04862845        1.27584919
       42.72964       48.13693564        1.28311359
       42.82933       45.95974529        1.27503021
       42.92903       46.14555072        1.23172832
       43.02872       47.51735162        1.18462311
       43.12841       46.06753553        1.18861736
       43.22811       43.19254123        1.20860513
       43.32780       47.01272912        1.32727949
       43.42749       45.09828901        1.27470109
       43.52719       46.19814251        1.24304572
       43.62688       44.57298184        1.21689104
       43.72657       43.44016725        1.23054619
       43.82627       44.75565926        1.30697175
       43.92596       43.29301379        1.16211866
       44.02565       44.81397702        1.17349544
       44.12535       42.47531744        1.18336472
       44.22504       44.73827146        1.26467744
       44.32473       44.42589773        1.32964905
       44.42443       41.95628473        1.24080871
       44.52412       43.94502237        1.23283360
       44.62381       41.82685565        1.22121357
       44.72351       40.41549560        1.16089158
       44.82320       43.95115339        1.35440596
       44.92289       41.87490279        1.10008118
       45.02259       42.46176583        1.11717028
       45.12228       41.61964344        1.14478818
       45.22197       40.78714984        1.16108303
       45.32167       43.09040641        1.32099507
       45.42136       40.81036940        1.17137013
       45.52105       40.99708482        1.16320514
       45.62075       41.20066751        1.18062042
       45.72044       40.94209476        1.17328343
       45.82013       40.30133924        1.27105789
       45.91983       42.17877844        1.10928309
       46.01952       41.38258079        1.12750904
       46.11921       41.80431926        1.13538994
       46.21891       39.58051291        1.16021384
       46.31860       37.86028766        1.22629495
       46.41829       38.71846033        1.14545132
       46.51799       40.60727357        1.17511857
       46.61768       37.63706994        1.12538603
       46.71738       37.14532842        1.14879331
       46.81707       38.19479785        1.20932631
       46.91676       41.38142276        1.10164392
       47.01646       39.19082665        1.10059237
       47.11615       40.05627080        1.13566761
       47.21584       39.47893768        1.16194280
       47.31554       41.16934213        1.28878513
       47.41523       39.51633757        1.18296251
       47.51492       37.59182610        1.15870777
       47.61462       38.24499207        1.16366962
       47.71431       42.56637583        1.24226286
       47.81400       41.02925542        1.25334125
       47.91370       38.88850604        1.07208175
       48.01339       38.29289568        1.06134960
       48.11308       38.41876561        1.09897902
       48.21278       41.82907493        1.19342421
       48.31247       37.90563463        1.17155269
       48.41216       37.78998258        1.09433370
       48.51186       40.18643302        1.16720450
       48.61155       38.32484761        1.13419648
       48.71124       39.25505350        1.17122467
       48.81094       38.29650325        1.14976746
       48.91063       38.53706324        1.03057169
       49.01032       38.55849514        1.06177721
       49.11002       38.86175814        1.10628459
       49.20971       38.02931373        1.15252965
       49.30940       38.12488449        1.19211817
       49.40910       39.30805603        1.15194933
       49.50879       38.34522732        1.15979288
       49.60848       39.87991636        1.19447415
       49.70818       38.57808502        1.22041597
       49.80787       39.30622433        1.19506661
       49.90756       38.91623870        1.07844268
       50.00726       39.84725972        1.11651663
       50.10695       38.41578918        1.12301502
       50.20664       39.11799714        1.18793623
       50.30634       38.90424056        1.24028711
       50.40603       37.92520197        1.14774754
       50.50572       38.94669405        1.16356186
       50.60542       41.10620840        1.19674839
       50.70511       39.08174149        1.19859280
       50.80480       40.63599285        1.19891183
       50.90450       40.37416295        1.08298713
       51.00419       40.20310182        1.09502465
       51.10388       39.07422400        1.11556238
       51.20358       41.97111659        1.23198105
       51.30327       40.73766348        1.20633078
       51.40297       40.32205698        1.14868381
       51.50266       39.69114407        1.14653558
       51.60235       39.54860604        1.16642196
       51.70205       37.30088475        1.20531018
       51.80174       38.89492412        1.13509551
       51.90143       39.22808944        1.06607647
       52.00113       38.37518290        1.05745521
       52.10082       38.42486093        1.09435121
       52.20051       38.20186824        1.19813126
       52.30021       37.60506568        1.14170738
       52.39990       36.16762342        1.09780245
       52.49959       37.42871790        1.13804089
       52.59929       35.50364269        1.12899729
       52.69898       40.74982665        1.32866048
       52.79867       37.70163139        1.07907382
       52.89837       38.22772211        1.04691191
       52.99806       37.59413126        1.05425612
       53.09775       38.71039841        1.10095102
       53.19745       37.54778841        1.23991660
       53.29714       38.29080089        1.10637693
       53.39683       35.18615944        1.10452760
       53.49653       36.22368867        1.13023585
       53.59622       36.96279348        1.14185221
       53.69591       37.20060612        1.25927749
       53.79561       35.69661626        1.03181039
       53.89530       37.41052400        1.04184122
       53.99499       36.01266935        1.03991216
       54.09469       37.12553223        1.10754825
       54.19438       33.61062875        1.14796034
       54.29407       37.89043857        1.12617940
       54.39377       36.65887689        1.11645966
       54.49346       36.18872591        1.11147903
       54.59315       34.61209187        1.10401098
       54.69285       34.69442184        1.17795863
       54.79254       36.05004749        1.02839037
       54.89223       35.98274072        1.01815552
       54.99193       35.21558843        1.03855131
       55.09162       36.69478327        1.10760936
       55.19131       35.78905964        1.17835741
       55.29101       32.70078170        1.04819986
       55.39070       34.76325649        1.11383435
       55.49039       35.18687296        1.11348375
       55.59009       33.79383558        1.12475679
       55.68978       34.83528064        1.16936958
       55.78947       33.13535925        0.99498715
       55.88917       35.39126964        1.03054153
       55.98886       37.52360392        1.07156011
       56.08856       39.34880221        1.13461558
       56.18825       41.41917201        1.25819269
       56.28794       45.07817793        1.19867407
       56.38764       50.22362424        1.30636850
       56.48733       55.99586968        1.39616073
       56.58702       55.29141046        1.42569061
       56.68672       62.46086233        1.56511758
       56.78641       64.47231688        1.37350747
       56.88610       60.21654640        1.34072724
       56.98580       54.35384565        1.27443657
       57.08549       47.41417660        1.26288499
       57.18518       46.00625593        1.28897517
       57.28488       39.29149839        1.10679659
       57.38457       34.75870622        1.10228203
       57.48426       35.98937207        1.14561926
       57.58396       34.80995888        1.15844812
       57.68365       33.52414305        1.15190539
       57.78334       33.52032545        1.00755241
       57.88304       31.49294510        0.98791984
       57.98273       33.36809685        1.03187200
       58.08242       31.06443952        1.07219741
       58.18212       31.81016631        1.10678473
       58.28181       30.16932562        1.01119701
       58.38150       31.36725083        1.08633837
       58.48120       32.46247993        1.13282241
       58.58089       33.49087171        1.16611207
       58.68058       31.15488309        1.10030594
       58.78028       32.61255630        0.98198931
       58.87997       32.56010136        0.96275413
       58.97966       32.02727840        0.98751344
       59.07936       31.32610759        1.04050245
       59.17905       31.23660053        1.05399077
       59.27874       32.62459754        1.02556215
       59.37844       31.56336304        1.04275420
       59.47813       32.17229495        1.09656514
       59.57782       33.28131117        1.16420090
       59.67752       31.58503428        1.05482279
       59.77721       31.29769413        0.96416485
       59.87690       31.06225619        0.95259916
       59.97660       30.75715854        0.99407792
       60.07629       28.64524426        1.04111188
       60.17598       32.67904279        1.06637518
       60.27568       30.29852699        0.99674232
       60.37537       30.80506683        1.02302990
       60.47506       30.70499686        1.06145544
       60.57476       31.90140743        1.18764786
       60.67445       28.31642805        0.95734796
       60.77415       30.42064970        0.94225505
       60.87384       30.82826304        0.93622017
       60.97353       30.01783224        0.97578685
       61.07323       28.75160302        1.07641025
       61.17292       28.47489955        0.92586127
       61.27261       29.87418711        0.97981654
       61.37231       31.49911986        1.04080559
       61.47200       28.36843997        1.02771481
       61.57169       28.82344929        1.17791464
       61.67139       28.26871511        0.95269184
       61.77108       29.05445265        0.94641734
       61.87077       28.70429191        0.93399037
       61.97047       27.66742892        0.95037727
       62.07016       28.15485425        1.08536287
       62.16985       29.39853524        0.97153730
       62.26955       29.08758256        1.00306291
       62.36924       29.21297992        1.03895015
       62.46893       29.23177738        1.07897109
       62.56863       29.22715617        1.21370308
       62.66832       28.16074928        0.96716747
       62.76801       28.57998137        0.94931784
       62.86771       29.13960094        0.93609055
       62.96740       28.32920672        0.94808065
       63.06709       29.41227020        1.07643839
       63.16679       27.35166412        0.91564014
       63.26648       28.67115305        0.96843938
       63.36617       27.53428153        0.99023428
       63.46587       30.89411714        1.08623406
       63.56556       29.05318667        1.12205810
       63.66525       29.65563803        0.95885193
       63.76495       28.85597857        0.91814353
       63.86464       29.45443624        0.92190745
       63.96433       27.02341294        0.92296742
       64.06403       28.22054513        1.00682067
       64.16372       29.37150563        0.95487543
       64.26341       30.00796358        1.01215482
       64.36311       29.07249595        1.01666758
       64.46280       27.91769205        1.05182707
       64.56249       31.30400772        1.13109240
       64.66219       27.49607199        0.92593694
       64.76188       29.41165465        0.94346319
       64.86157       29.32231223        0.93707524
       64.96127       28.93748361        0.97944314
       65.06096       28.36844829        1.05308550
       65.16065       29.88520684        0.98041701
       65.26035       30.99096963        1.01868023
       65.36004       30.39600311        1.04970745
       65.45974       30.40036705        1.08323061
       65.55943       31.35895829        1.14937229
       65.65912       31.22628095        0.99309948
       65.75882       30.91161073        0.97883215
       65.85851       32.60772248        1.00629447
       65.95820       34.46086569        1.08986971
       66.05790       34.53313277        1.12792924
       66.15759       35.99944827        1.09390797
       66.25728       37.46572245        1.14839281
       66.35698       39.32458721        1.22186267
       66.45667       43.13697130        1.35730060
       66.55636       47.21238315        1.41372391
       66.65606       56.02970470        1.36834855
       66.75575       72.27833329        1.52946366
       66.85544      103.19091956        1.81530545
       66.95514      153.01184794        2.30079650
       67.05483      223.15897161        2.79951419
       67.15452      336.64190768        3.27874985
       67.25422      481.54927393        4.12304713
       67.35391      603.03098537        4.84406311
       67.45360      708.68802799        5.58513014
       67.55330      784.50673224        5.68822022
       67.65299      849.12927328        5.35422433
       67.75268      868.14050882        5.35036682
       67.85238      838.53631572        5.30494881
       67.95207      754.11080850        5.35490847
       68.05176      630.38951102        4.60954876
       68.15146      454.36895038        3.83708080
       68.25115      311.18327588        3.35408561
       68.35084      204.23992631        2.84292316
       68.45054      149.81982408        2.69040002
       68.55023      110.06287332        1.98398583
       68.64992       76.83016586        1.53621474
       68.74962       56.51815022        1.32825585
       68.84931       44.58583460        1.19526975
       68.94900       42.16379164        1.31377531
       69.04870       38.71647033        1.05871017
       69.14839       36.09721938        1.05991858
       69.24808       34.45538974        1.11667435
       69.34778       32.57753660        1.11941693
       69.44747       34.24119714        1.32589612
       69.54716       30.92149193        0.98182729
       69.64686       31.62853855        0.97726768
       69.74655       31.75216397        0.98429500
       69.84625       30.12951141        0.98131970
       69.94594       29.37777399        1.09365043
       70.04563       30.90522652        0.93105542
       70.14533       29.87429677        0.95532629
       70.24502       27.78643324        0.98387971
       70.34471       28.05326040        1.04495176
       70.44441       28.01622614        1.22647345
       70.54410       29.79228941        0.98892299
       70.64379       33.27746025        1.03873034
       70.74349       31.65928517        1.02802760
       70.84318       34.60234045        1.12561901
       70.94287       36.90195887        1.28328986
       71.04257       35.31644700        1.03611604
       71.14226       35.17768056        1.07119798
       71.24195       36.92749719        1.15268876
       71.34165       34.24311068        1.17168898
       71.44134       36.45430127        1.34583146
       71.54103       33.62516411        1.05173228
       71.64073       33.38665785        1.02807435
       71.74042       30.06765880        0.96494693
       71.84011       28.73888407        0.97827517
       71.93981       28.09375984        1.05194095
       72.03950       27.19864977        0.87271648
       72.13919       25.62779989        0.88258869
       72.23889       26.81499357        0.93820242
       72.33858       23.70439436        0.98280127
       72.43827       25.81595423        1.12754102
       72.53797       24.23347638        0.88985601
       72.63766       25.11388441        0.88897456
       72.73735       25.41748061        0.87200870
       72.83705       28.05600155        0.96510225
       72.93674       24.26564288        0.95222826
       73.03643       24.87932641        0.83362649
       73.13613       23.98240802        0.85939281
       73.23582       24.15566482        0.90926626
       73.33551       25.19820165        1.02897259
       73.43521       25.24536492        1.11852625
       73.53490       25.98005178        0.91481927
       73.63459       26.88789113        0.91530044
       73.73429       26.32925721        0.89870446
       73.83398       25.67994711        0.93958543
       73.93367       26.69220160        1.00697662
       74.03337       26.03320706        0.87612115
       74.13306       26.90129399        0.93814903
       74.23275       25.79378411        0.96042192
       74.33245       25.15091338        1.04237551
       74.43214       25.46144378        1.08338573
       74.53184       27.30475647        0.95230819
       74.63153       26.60927911        0.93281562
       74.73122       25.96694471        0.91464114
       74.83092       24.98099654        0.94838633
       74.93061       24.22257360        0.94558918
       75.03030       24.71247285        0.86136726
       75.13000       23.72999606        0.87290372
       75.22969       24.91410901        0.93218708
       75.32938       25.96135763        1.04243597
       75.42908       23.55797986        1.00557430
       75.52877       24.23600134        0.88461020
       75.62846       23.61878283        0.86740432
       75.72816       24.04387325        0.87559736
       75.82785       24.70108937        0.96149840
       75.92754       24.96054736        0.91393131
       76.02724       24.88443994        0.85132453
       76.12693       24.94884073        0.88670357
       76.22662       22.79319414        0.89417793
       76.32632       23.01129254        1.01449754
       76.42601       23.76824665        0.96488866
       76.52570       22.50409833        0.86334638
       76.62540       23.10916604        0.87400454
       76.72509       24.34565964        0.88951125
       76.82478       22.66033118        0.99022141
       76.92448       22.54541542        0.78492367
       77.02417       22.69553746        0.81450876
       77.12386       23.79063355        0.87430397
       77.22356       22.39428319        0.89974414
       77.32325       21.31237088        1.07324460
       77.42294       22.53856412        0.88352716
       77.52264       23.76623100        0.89041889
       77.62233       24.73289328        0.90385569
       77.72202       23.15067290        0.87239390
       77.82172       24.31082139        1.04446737
       77.92141       22.31590549        0.76709254
       78.02110       22.29317281        0.82537914
       78.12080       21.48986676        0.85952486
       78.22049       24.95213063        0.98515209
       78.32018       21.92184490        1.07534687
       78.41988       23.04936316        0.87161115
       78.51957       23.38960832        0.90461556
       78.61926       22.95234381        0.89000604
       78.71896       22.40063292        0.88084650
       78.81865       22.94308657        0.99329579
       78.91834       23.08227812        0.76822789
       79.01804       22.65086784        0.83787416
       79.11773       22.47219540        0.87447217
       79.21743       20.78724722        0.89898700
       79.31712       21.41313512        1.02741853
       79.41681       21.22797409        0.82489454
       79.51651       22.33018101        0.86107410
       79.61620       21.54794590        0.84655175
       79.71589       21.92634831        0.88457656
       79.81559       22.22217446        0.94101688
       79.91528       21.68595190        0.78987510
       80.01497       22.12259059        0.83121876
       80.11467       23.37708559        0.89006338
       80.21436       23.60437431        0.95434839
       80.31405       22.94087506        1.11694993
       80.41375       22.79255158        0.85190235
       80.51344       21.19531480        0.81756727
       80.61313       20.87653169        0.83321196
       80.71283       23.60085687        0.92078597
       80.81252       22.62408051        1.01585665
       80.91221       23.14893888        0.76672209
       81.01191       23.69855436        0.83153793
       81.11160       20.11516080        0.82514674
       81.21129       23.04784642        0.95395429
       81.31099       22.68860855        1.05413146
       81.41068       20.24922432        0.77544832
       81.51037       21.99145473        0.82902121
       81.61007       21.94601457        0.87477624
       81.70976       21.94623253        0.90668749
       81.80945       23.23033321        0.99217265
       81.90915       22.81464033        0.74901272
       82.00884       22.63039569        0.79839698
       82.10853       23.70250439        0.91044271
       82.20823       19.28629357        0.90831827
       82.30792       20.47786922        0.97868471
       82.40761       21.89419996        0.82705895
       82.50731       23.19133310        0.86122543
       82.60700       22.86766844        0.91583536
       82.70669       20.66875054        0.94806450
       82.80639       22.30226027        0.93862232
       82.90608       24.05179702        0.78997190
       83.00577       20.82188135        0.77737668
       83.10547       20.71475288        0.91053191
       83.20516       23.15792727        1.07872774
       83.30485       22.73082464        1.02119322
       83.40455       23.53878709        0.86721618
       83.50424       24.21454732        0.85379052
       83.60393       23.89612401        0.93384098
       83.70363       22.64855329        1.02182705
       83.80332       25.63503139        0.95138711
       83.90302       23.87747332        0.76743467
       84.00271       23.58023405        0.79376189
       84.10240       26.16092712        1.01220914
       84.20210       26.25897029        1.23184340
       84.30179       26.71581900        1.01055500
       84.40148       26.72385665        0.88772314
       84.50118       26.27808856        0.86449166
       84.60087       25.57775436        0.96122374
       84.70056       24.70790986        1.22870736
       84.80026       24.48813795        0.85462161
       84.89995       24.14761416        0.76604386
       84.99964       24.62733533        0.80528712
       85.09934       24.05424699        0.93783726
       85.19903       25.42595603        1.65114580
       85.29872       22.39526586        0.81519503
       85.39842       22.73156240        0.83475734
       85.49811       20.74799444        0.77473818
       85.59780       19.45499178        0.84034249
       85.69750       21.08840133        1.57384241
       85.79719       21.68738042        0.76226741
       85.89688       21.33775030        0.73844253
       85.99658       22.23022616        0.77159118
       86.09627       20.01544490        0.83897401
       86.19596       21.88072314        1.69285064
       86.29566       20.73252221        0.77560557
       86.39535       21.57082241        0.79953079
       86.49504       21.68760634        0.78901905
       86.59474       22.11748786        0.86139653
       86.69443       19.94816688        1.71379968
       86.79412       22.11754721        0.75117761
       86.89382       20.34408664        0.70166206
       86.99351       21.14590594        0.74276593
       87.09320       19.93127917        0.79964945
       87.19290       22.19585586        2.00210531
       87.29259       20.83237785        0.78086125
       87.39228       19.96015890        0.78285086
       87.49198       22.30037602        0.81081262
       87.59167       21.51373723        0.80599712
       87.69136       23.24851943        2.50639539
       87.79106       21.24983072        0.74304759
       87.89075       22.15684657        0.75265800
       87.99044       21.47287622        0.76692121
       88.09014       20.26636428        0.79126093
       88.18983       16.11944501        3.75508417
       88.28952       21.03525340        0.82119143
       88.38922       20.14879359        0.81144301
       88.48891       21.43816989        0.79931176
       88.58861       20.99753082        0.76358843
       88.68830       13.66802915        4.82594623
       88.78799       20.99643528        0.73670848
       88.88769       21.41358106        0.72302355
       88.98738       20.05704583        0.73039335
       89.08707       21.59961089        0.78451574
       89.18677       25.92436458        7.00459168
       89.28646       21.97169315        0.80167809
       89.38615       21.93211841        0.80383566
       89.48585       21.83069540        0.78680282
       89.58554       21.00339156        0.75292596
       89.68523       17.62519576        5.57376589
       89.78493       20.58121180        0.71984142
       89.88462       20.94373986        0.71984708
       89.98431       20.85609186        0.74137598
       90.08401       21.03576734        0.76589705
       90.18370       21.48858627        6.40781019
       90.28339       22.42679982        0.80666575
       90.38309       19.96582690        0.77282842
       90.48278       20.10623049        0.75817582
       90.58247       21.55994884        0.77249616
       90.68217       27.52979017        6.89303613
       90.78186       21.39784981        0.74646615
       90.88155       21.44748587        0.72869993
       90.98125       21.26985927        0.74587105
       91.08094       22.88448078        0.79846567
       91.18063       29.42186973        7.21950655
       91.28033       22.96358224        0.82188832
       91.38002       22.15427258        0.82458488
       91.47971       23.23977712        0.82416424
       91.57941       24.03774456        0.82260964
       91.67910       29.35535460        6.88804825
       91.77879       24.02850333        0.78773255
       91.87849       24.46890548        0.77846699
       91.97818       24.26681311        0.80495441
       92.07787       26.66580987        0.87535047
       92.17757       28.29952421        6.84822140
       92.27726       28.80043824        0.93693356
       92.37695       33.15083136        1.03787220
       92.47665       36.81314008        1.05089877
       92.57634       42.00513352        1.08022471
       92.67603       55.62917350        8.12654522
       92.77573       50.41078825        1.13999699
       92.87542       67.15532380        1.28868766
       92.97511       93.34257577        1.58248275
       93.07481      131.03145207        2.13980543
       93.17450      141.65608515        4.19789612
       93.27420      177.90956204        2.32830442
       93.37389      225.05542334        2.55144413
       93.47358      266.54611119        2.79552743
       93.57328      305.58756995        3.46908082
       93.67297      309.34450392        4.70675707
       93.77266      323.78115060        2.98414759
       93.87236      344.73034504        2.92454403
       93.97205      359.92371323        3.14800003
       94.07174      375.75294530        4.21069301
       94.17144      376.08100661        4.81331063
       94.27113      380.18892915        3.58006458
       94.37082      367.58388884        3.40964105
       94.47052      351.86712344        3.20206201
       94.57021      319.74521420        4.02186306
       94.66990      302.56452887        3.94531328
       94.76960      262.82381986        2.84135516
       94.86929      198.84860095        2.26578114
       94.96898      142.58702345        1.94357908
       95.06868      105.26784066        1.91371177
       95.16837       89.49141482        2.40728951
       95.26806       73.30308855        1.68172546
       95.36776       61.47150699        1.39486316
       95.46745       54.05773861        1.25579592
       95.56714       42.30287022        1.27328511
       95.66684       39.99872006        1.40080105
       95.76653       33.58130065        1.06644988
       95.86622       30.67756872        0.86767324
       95.96592       28.17679397        0.85729718
       96.06561       30.32187179        1.13946089
       96.16530       27.23100125        1.14607917
       96.26500       28.09307276        1.04623173
       96.36469       27.84787455        0.92899867
       96.46438       30.75796229        0.94995497
       96.56408       31.37126179        1.19816480
       96.66377       34.88788243        1.22746723
       96.76346       33.00028616        1.06347060
       96.86316       35.16741465        0.94736169
       96.96285       35.42412148        0.98087715
       97.06254       36.10377041        1.33456697
       97.16224       37.17362523        1.29598318
       97.26193       37.53641589        1.21792424
       97.36162       37.84215257        1.14441043
       97.46132       36.47098422        1.04361057
       97.56101       34.56991831        1.28303277
       97.66071       35.19094468        1.15835385
       97.76040       36.96473284        1.07921630
       97.86009       33.17566447        0.92139070
       97.95979       31.44095941        0.91154992
       98.05948       29.90372605        1.24318996
       98.15917       29.76816109        1.10770599
       98.25887       26.77813764        1.00940436
       98.35856       26.19896955        0.93848099
       98.45825       24.22139572        0.83889401
       98.55795       21.99981539        1.04306361
       98.65764       22.62121520        0.90635776
       98.75733       21.86886638        0.82857148
       98.85703       21.39143966        0.76387580
       98.95672       22.35635305        0.78382546
       99.05641       23.17132790        1.11278239
       99.15611       21.83023180        0.92643453
       99.25580       19.99740564        0.85511440
       99.35549       21.44513836        0.84145572
       99.45519       21.69733952        0.78804050
       99.55488       22.75606385        1.07725848
       99.65457       22.55083950        0.88324114
       99.75427       22.73074694        0.83039382
       99.85396       21.27953699        0.77402691
       99.95365       20.52131516        0.74501738
      100.05335       22.95317168        1.11690732
      100.15304       21.27859242        0.90311631
      100.25273       22.79816790        0.92395783
      100.35243       21.46419955        0.88985892
      100.45212       20.00950785        0.78363002
      100.55181       21.76605318        1.07586259
      100.65151       21.01820630        0.86453832
      100.75120       21.61240300        0.81621955
      100.85089       21.38895896        0.77428241
      100.95059       22.31668614        0.76829024
      101.05028       22.06682969        1.08983978
      101.14997       23.23104303        0.92137649
      101.24967       21.81491402        0.87972837
      101.34936       21.03487462        0.86757425
      101.44905       20.76934389        0.81762254
      101.54875       19.63744634        0.99902010
      101.64844       22.11118793        0.86257892
      101.74813       19.91178877        0.76760353
      101.84783       21.45386651        0.77231819
      101.94752       20.47712999        0.79483433
      102.04721       20.35844624        0.95238918
      102.14691       19.40350821        0.83694551
      102.24660       21.68090184        0.87749996
      102.34630       20.68734706        0.86360627
      102.44599       21.58188224        0.89495145
      102.54568       21.10938659        0.92648500
      102.64538       22.08030457        0.84485322
      102.74507       20.25859793        0.76856488
      102.84476       20.53739743        0.75802244
      102.94446       20.78835968        0.86496856
      103.04415       19.70000202        0.89934913
      103.14384       20.66320598        0.86316504
      103.24354       19.89088672        0.83512503
      103.34323       20.59372222        0.84134214
      103.44292       19.61393441        0.88842149
      103.54262       19.30442957        0.85548866
      103.64231       19.19383157        0.77446095
      103.74200       19.81467268        0.74925065
      103.84170       19.98537796        0.73778319
      103.94139       21.24953143        0.92400226
      104.04108       20.62279816        0.88156380
      104.14078       20.32383245        0.84768096
      104.24047       20.23985539        0.84373493
      104.34016       19.81732959        0.83844324
      104.43986       19.97065707        0.95854317
      104.53955       19.93823314        0.86349167
      104.63924       19.60123446        0.80283594
      104.73894       20.79115135        0.79469111
      104.83863       21.37414270        0.78214859
      104.93832       19.41229868        0.90254583
      105.03802       20.41613836        0.86880676
      105.13771       20.13113218        0.83004590
      105.23740       18.94386233        0.80207786
      105.33710       19.05286881        0.80616956
      105.43679       21.75412846        1.00294099
      105.53648       20.36995553        0.87305990
      105.63618       20.18770116        0.79944182
      105.73587       20.26403292        0.76622275
      105.83556       19.66206422        0.73382495
      105.93526       19.12117408        0.91531721
      106.03495       19.26449128        0.83201626
      106.13464       20.31782794        0.82470553
      106.23434       19.58412256        0.81438559
      106.33403       20.95159311        0.85148614
      106.43372       20.16088799        0.99899131
      106.53342       19.06422325        0.84624990
      106.63311       20.74033546        0.80261733
      106.73280       19.42317872        0.73763348
      106.83250       19.24723950        0.72160857
      106.93219       20.04046608        0.95291814
      107.03189       21.73235041        0.87941679
      107.13158       19.54378485        0.80767113
      107.23127       19.47114223        0.82115537
      107.33097       19.90045556        0.83055815
      107.43066       19.47957136        0.98998824
      107.53035       20.92429338        0.88193255
      107.63005       20.18835998        0.78823398
      107.72974       21.48220253        0.77907376
      107.82943       19.95589641        0.74026196
      107.92913       20.15996680        0.98350738
      108.02882       20.60261918        0.87163929
      108.12851       20.47813406        0.83068011
      108.22821       21.91303588        0.84718945
      108.32790       19.52547473        0.78933913
      108.42759       20.80148777        1.03309560
      108.52729       21.17275373        0.88376796
      108.62698       20.19300742        0.78020286
      108.72667       21.47270578        0.77118844
      108.82637       20.58313232        0.77354651
      108.92606       20.82382471        0.99044814
      109.02575       20.93657652        0.86884730
      109.12545       20.90126222        0.84541994
      109.22514       22.46231176        0.87417332
      109.32483       21.84870220        0.93753765
      109.42453       24.62178420        1.04931114
      109.52422       23.30231729        0.92083498
      109.62391       25.60324488        0.91708448
      109.72361       25.08360505        0.86915911
      109.82330       27.63091090        0.85834348
      109.92299       27.57585426        1.11514803
      110.02269       27.68074834        0.97419342
      110.12238       29.03242601        0.99042396
      110.22207       27.58327533        0.95701763
      110.32177       25.86822060        0.94470735
      110.42146       29.86484054        1.23036184
      110.52115       29.00597919        1.03162330
      110.62085       29.88029863        0.99092722
      110.72054       30.42392217        0.93883617
      110.82023       29.34226898        0.94890604
      110.91993       29.05061332        1.09693002
      111.01962       29.48224722        1.02100631
      111.11931       29.25348736        1.02178770
      111.21901       30.33974024        1.01981896
      111.31870       26.79826319        1.03791450
      111.41839       27.32982616        1.09123600
      111.51809       26.77520943        0.98537030
      111.61778       25.84969306        0.91158748
      111.71748       26.24673807        0.85137941
      111.81717       21.68045096        0.83737079
      111.91686       21.81596675        0.88288658
      112.01656       22.42856003        0.87406365
      112.11625       21.35893707        0.85821629
      112.21594       21.02522970        0.84974109
      112.31564       21.37798340        0.94975610
      112.41533       22.04195359        0.94695788
      112.51502       20.76130115        0.84482350
      112.61472       20.83170481        0.80635736
      112.71441       19.88839100        0.74192523
      112.81410       20.65938441        0.84532787
      112.91380       20.15336382        0.84948620
      113.01349       19.19165926        0.81314393
      113.11318       20.92608841        0.84977713
      113.21288       19.03898637        0.80919368
      113.31257       20.68118770        0.93201007
      113.41226       19.69050551        0.86244210
      113.51196       19.35678798        0.80395411
      113.61165       19.15279117        0.77179133
      113.71134       20.66371709        0.76350769
      113.81104       18.00722328        0.81659699
      113.91073       18.90335354        0.81569476
      114.01042       18.59160891        0.80211179
      114.11012       20.71383095        0.84531115
      114.20981       19.32546089        0.81993242
      114.30950       17.76681735        0.89078607
      114.40920       18.91009410        0.84838401
      114.50889       19.87733887        0.81425335
      114.60858       20.37547531        0.79950100
      114.70828       20.66840670        0.77802527
      114.80797       21.10670255        0.89612035
      114.90766       20.83455761        0.83795941
      115.00736       19.55429510        0.80629516
      115.10705       19.85188672        0.81499767
      115.20674       19.89938109        0.82871344
      115.30644       18.71650138        0.92059992
      115.40613       19.62022655        0.85487030
      115.50582       21.77284104        0.85209384
      115.60552       19.83772265        0.78745405
      115.70521       20.04272100        0.76195174
      115.80490       19.50154175        0.87452747
      115.90460       20.89728462        0.81895357
      116.00429       18.79554495        0.78575792
      116.10398       22.08381780        0.85729399
      116.20368       21.61378458        0.86691819
      116.30337       20.47069749        1.00776774
      116.40307       19.84490078        0.86739488
      116.50276       20.81986185        0.84163055
      116.60245       21.22970874        0.81704008
      116.70215       21.25161030        0.78766903
      116.80184       19.96713772        0.90568849
      116.90153       20.90451737        0.83418388
      117.00123       19.95133717        0.80768144
      117.10092       20.38165565        0.83779751
      117.20061       20.30670463        0.84898147
      117.30031       21.30977106        1.04573322
      117.40000       19.99076019        0.84841214
      117.49969       22.85557237        0.86117432
      117.59939       21.76734087        0.80190426
      117.69908       21.25273684        0.76703989
      117.79877       21.76534691        0.95187970
      117.89847       22.40080651        0.83850534
      117.99816       21.06584751        0.82493583
      118.09785       21.71757861        0.85794714
      118.19755       22.89400269        0.92024749
      118.29724       25.23603779        1.05311837
      118.39693       26.13977456        0.97770423
      118.49663       27.14780568        0.93713482
      118.59632       29.39197377        0.93846127
      118.69601       32.67593234        1.03419088
      118.79571       33.66159221        1.13553410
      118.89540       37.30188085        1.11746833
      118.99509       39.51574296        1.15035053
      119.09479       45.06861451        1.23814833
      119.19448       46.40552724        1.36820362
      119.29417       50.66363250        1.48662253
      119.39387       57.62066016        1.45942266
      119.49356       65.98095202        1.46907532
      119.59325       78.95172247        1.56411877
      119.69295       93.97819322        1.80588157
      119.79264      105.40581019        1.93751203
      119.89233      126.56226923        2.05849047
      119.99203      144.59879563        2.14925203
      120.09172      162.37867896        2.32467905
      120.19141      178.73495007        2.73755039
      120.29111      192.15035656        2.80528299
      120.39080      203.19616770        2.75660290
      120.49049      216.09813187        2.65279170
      120.59019      226.43696770        2.63916751
      120.68988      235.67175493        2.90215785
      120.78957      239.11695924        2.85456576
      120.88927      248.83524053        2.86437798
      120.98896      256.13869449        2.87620511
      121.08866      259.68234293        2.90854617
      121.18835      265.22887889        3.37771436
      121.28804      269.45301351        3.31869894
      121.38774      271.92517584        3.16236761
      121.48743      279.85548725        3.03808125
      121.58712      282.30037738        2.90910285
      121.68682      277.62021143        3.17679799
      121.78651      276.09319134        3.02286710
      121.88620      273.18280164        2.96939912
      121.98590      264.23893241        2.93764016
      122.08559      254.87200634        2.94051393
      122.18528      249.07006617        3.39345137
      122.28498      245.11499626        3.16101489
      122.38467      225.01489198        2.89532874
      122.48436      208.62729580        2.63468960
      122.58406      180.20032747        2.31465498
      122.68375      161.43136276        2.47942464
      122.78344      140.69160684        2.17184753
      122.88314      121.28232198        2.00115025
      122.98283       95.79350105        1.81545515
      123.08252       86.57305080        1.71945580
      123.18222       75.38457061        1.86784183
      123.28191       69.70071208        1.62725151
      123.38160       60.57431106        1.46413386
      123.48130       54.53067245        1.33693038
      123.58099       47.85410099        1.16954580
      123.68068       43.54432760        1.27250840
      123.78038       40.16225784        1.10335789
      123.88007       37.65181282        1.04882689
      123.97976       33.09961990        0.99917200
      124.07946       30.22134431        0.94372257
      124.17915       27.63795163        1.01610473
      124.27884       25.81383772        0.87913930
      124.37854       23.32763170        0.78603943
      124.47823       22.82409975        0.76095128
      124.57792       23.43583466        0.82167435
