        5.04553       72.69132804        3.21196517
        5.14523       62.75485205        2.85443342
        5.24492       62.38821764        2.80683466
        5.34461       63.70563569        2.61126194
        5.44431       62.58643531        2.83077359
        5.54400       61.90249384        2.34649911
        5.64369       62.56641886        2.37076191
        5.74339       63.06643186        2.13338987
        5.84308       63.11547250        2.16008432
        5.94277       64.18800266        2.17281558
        6.04247       60.15299503        2.04002374
        6.14216       65.04469047        1.95320956
        6.24185       63.96982794        1.99600548
        6.34155       62.84598349        1.88748442
        6.44124       63.49524759        2.00010376
        6.54093       64.56927185        1.91249352
        6.64063       65.17574984        1.82129640
        6.74032       61.89409288        1.77467036
        6.84001       66.30465187        1.82667124
        6.93971       62.84841676        1.79359719
        7.03940       66.24156962        1.71555414
        7.13909       62.68020807        1.66115347
        7.23879       63.10771535        1.64327108
        7.33848       65.62192170        1.70169506
        7.43817       63.79746284        1.64234800
        7.53787       61.42664786        1.59056295
        7.63756       65.40544957        1.56552876
        7.73725       65.37480243        1.62732200
        7.83695       63.88243776        1.55616226
        7.93664       67.50404531        1.66900734
        8.03633       65.43943944        1.47948675
        8.13603       67.16495915        1.48145793
        8.23572       64.82750680        1.48394207
        8.33541       67.02856211        1.49404964
        8.43511       65.70903686        1.56509142
        8.53480       67.70353407        1.47214651
        8.63449       66.07807344        1.44083899
        8.73419       68.98349997        1.43746557
        8.83388       66.17404356        1.41567956
        8.93357       71.22444087        1.46570996
        9.03327       70.92111665        1.42441642
        9.13296       72.05409780        1.42838885
        9.23265       71.04137353        1.43584119
        9.33235       70.86674681        1.47617982
        9.43204       71.18719349        1.47379065
        9.53174       73.98464912        1.44393241
        9.63143       71.57395326        1.46771001
        9.73112       72.31016924        1.47546890
        9.83082       73.50959124        1.55229154
        9.93051       71.25017052        1.50538827
       10.03020       74.96332275        1.49280923
       10.12990       73.87911329        1.44647106
       10.22959       72.90899216        1.49521624
       10.32928       76.80617397        1.59907156
       10.42898       74.83106568        1.55791859
       10.52867       80.07907003        1.55907097
       10.62836       77.09398373        1.52921805
       10.72806       78.22663984        1.55963331
       10.82775       78.94296996        1.56292122
       10.92744       80.89190082        1.60572955
       11.02714       81.29416954        1.53759556
       11.12683       84.08464853        1.61651125
       11.22652       81.98172808        1.61474242
       11.32622       83.63528114        1.67410448
       11.42591       86.19986895        1.64014066
       11.52560       83.70897209        1.59794080
       11.62530       86.04590644        1.63465538
       11.72499       87.68245256        1.68006784
       11.82468       86.71411183        1.71586351
       11.92438       88.39946324        1.64624908
       12.02407       88.45308012        1.62828551
       12.12376       88.92164921        1.64243681
       12.22346       89.46847006        1.74815837
       12.32315       89.74577238        1.76795568
       12.42284       92.56186087        1.71208397
       12.52254       94.00728005        1.71179279
       12.62223       95.73727885        1.77544538
       12.72192       94.52478701        1.71387098
       12.82162       98.31026986        1.88843174
       12.92131       94.55571033        1.70001825
       13.02100      101.20122398        1.73853199
       13.12070       99.63794321        1.75338891
       13.22039      103.13569552        1.83634940
       13.32008       99.78395994        1.87472980
       13.41978      102.82302809        1.80929773
       13.51947      102.88309290        1.84341643
       13.61916      108.40628250        1.82732631
       13.71886      108.22398318        1.91462497
       13.81855      106.86116056        1.93113222
       13.91824      107.97859086        1.82701471
       14.01794      107.86431669        1.78626645
       14.11763      115.86658735        1.91788971
       14.21733      110.19955074        1.87923822
       14.31702      114.48296051        2.01206006
       14.41671      115.66942851        1.96164838
       14.51641      115.79405377        1.90868332
       14.61610      116.44390327        1.92351000
       14.71579      119.33713266        1.98301433
       14.81549      118.05877441        2.06872793
       14.91518      118.61295050        1.89595465
       15.01487      118.89967713        1.93261364
       15.11457      118.53972575        1.95268858
       15.21426      127.02844160        2.08324265
       15.31395      121.12337217        2.08717488
       15.41365      123.20042722        2.03698041
       15.51334      122.76008566        1.97196945
       15.61303      127.62407495        2.07069834
       15.71273      127.34121306        2.03187410
       15.81242      129.66884307        2.15018632
       15.91211      122.97756086        2.01939858
       16.01181      128.77593295        1.98646019
       16.11150      130.28196999        2.05814997
       16.21119      131.19315808        2.12470440
       16.31089      125.87224294        2.08378217
       16.41058      129.18885563        2.06784530
       16.51027      128.17031153        2.09625653
       16.60997      126.10054243        2.00574681
       16.70966      129.08320740        2.07937456
       16.80935      130.07560698        2.11246784
       16.90905      129.66281650        2.04580379
       17.00874      122.87481583        1.90733507
       17.10843      125.39486809        2.04245388
       17.20813      127.13258687        2.07141536
       17.30782      123.35687222        2.05673747
       17.40751      124.57357344        2.06540682
       17.50721      125.20381589        2.00589244
       17.60690      123.56920590        2.05873606
       17.70659      121.65947229        2.05222867
       17.80629      115.75898884        2.02514691
       17.90598      119.44501943        1.92500973
       18.00567      120.80171875        1.97101277
       18.10537      115.47623453        1.87447836
       18.20506      114.83132684        2.04763644
       18.30475      115.38176095        1.95797969
       18.40445      114.79569517        1.90036887
       18.50414      110.05462431        1.92137229
       18.60383      110.22008961        1.89215174
       18.70353      106.96099619        1.97161165
       18.80322      105.03509753        1.83803734
       18.90292      108.87591355        1.85286910
       19.00261      105.03911095        1.76438363
       19.10230      105.26771394        1.88253949
       19.20200      102.07651621        1.89681565
       19.30169      102.13099334        1.82924436
       19.40138      101.04029104        1.80274006
       19.50108      100.20900746        1.83615106
       19.60077       96.83317299        1.78674479
       19.70046       98.39560001        1.88776901
       19.80016       94.87047433        1.75506993
       19.89985       93.83050110        1.69433903
       19.99954       92.53898076        1.69935011
       20.09924       92.05781625        1.71566883
       20.19893       90.99680161        1.82345598
       20.29862       93.09347234        1.74716529
       20.39832       87.00516675        1.74269715
       20.49801       89.05418988        1.72956597
       20.59770       86.84604167        1.74271893
       20.69740       86.35788813        1.79940852
       20.79709       85.00048055        1.69994008
       20.89678       81.81460513        1.62548676
       20.99648       86.54900887        1.69955007
       21.09617       85.37561399        1.76230843
       21.19586       82.28643243        1.72912836
       21.29556       82.72624662        1.69420902
       21.39525       81.89956564        1.68821716
       21.49494       82.84268420        1.66829759
       21.59464       78.60569414        1.66011221
       21.69433       78.97658060        1.73265273
       21.79402       78.45728730        1.57653678
       21.89372       77.71329565        1.53713999
       21.99341       75.88291926        1.58320354
       22.09310       76.17816148        1.59306800
       22.19280       76.29845798        1.69078332
       22.29249       76.27930025        1.57757455
       22.39218       75.75744706        1.60665069
       22.49188       73.38748263        1.58307666
       22.59157       73.54730667        1.60534185
       22.69126       72.03813975        1.66952520
       22.79096       73.47997596        1.52351858
       22.89065       71.98318100        1.47332271
       22.99034       71.94600723        1.51349375
       23.09004       72.26149058        1.58420933
       23.18973       71.41190658        1.57204991
       23.28942       70.40750628        1.53800163
       23.38912       70.03009445        1.54929706
       23.48881       72.20429596        1.58122861
       23.58851       69.90369985        1.57548043
       23.68820       68.97309100        1.64796922
       23.78789       70.96174563        1.48841812
       23.88759       68.60267840        1.48421758
       23.98728       68.51180680        1.51361292
       24.08697       70.21118473        1.50253826
       24.18667       70.50069315        1.61471191
       24.28636       67.44362274        1.49797640
       24.38605       69.32077683        1.55179793
       24.48575       70.40477202        1.56158345
       24.58544       70.41592470        1.60919848
       24.68513       68.96938583        1.59287986
       24.78483       69.58328137        1.47452932
       24.88452       68.03596347        1.45447236
       24.98421       68.47348197        1.50926133
       25.08391       66.24500239        1.51523408
       25.18360       65.78481397        1.54254929
       25.28329       66.92632420        1.49984278
       25.38299       68.84339181        1.51667058
       25.48268       65.23965144        1.48501065
       25.58237       68.68932974        1.58560176
       25.68207       67.51805625        1.54030625
       25.78176       62.85472125        1.39671910
       25.88145       67.81505206        1.48971280
       25.98115       64.73597029        1.47095396
       26.08084       66.05359369        1.52264298
       26.18053       65.22748505        1.55449968
       26.28023       65.88300185        1.47852058
       26.37992       67.51205292        1.49776317
       26.47961       68.63203348        1.55981560
       26.57931       65.32892610        1.58790208
       26.67900       70.09045083        1.53943464
       26.77869       65.25966663        1.47463831
       26.87839       66.86120001        1.47661634
       26.97808       66.30959784        1.46108319
       27.07777       68.48663847        1.59989494
       27.17747       64.34470179        1.48026237
       27.27716       64.93052373        1.44945903
       27.37685       68.45135297        1.54662711
       27.47655       67.74264367        1.51460736
       27.57624       66.33645962        1.56578886
       27.67593       66.21763290        1.53204693
       27.77563       66.04793407        1.46485942
       27.87532       66.59621926        1.44648275
       27.97501       67.14191883        1.48158162
       28.07471       64.20357860        1.53526245
       28.17440       64.95049797        1.47705554
       28.27410       67.60413997        1.50391294
       28.37379       65.15165360        1.51170368
       28.47348       69.37630768        1.55004220
       28.57318       65.81816794        1.63530897
       28.67287       69.20276992        1.49522232
       28.77256       64.66678910        1.41858072
       28.87226       66.98225138        1.47937602
       28.97195       65.31546559        1.46629275
       29.07164       67.09703563        1.61780296
       29.17134       65.54872054        1.45661501
       29.27103       67.77973301        1.50522717
       29.37072       65.99198646        1.54630357
       29.47042       67.97572523        1.54688751
       29.57011       67.47410981        1.63093973
       29.66980       68.35291571        1.49688384
       29.76950       65.73104225        1.46694458
       29.86919       68.34116818        1.46599791
       29.96888       68.18881728        1.53129576
       30.06858       68.14243520        1.58055518
       30.16827       67.07494606        1.48343360
       30.26796       65.49864039        1.46744512
       30.36766       66.31497539        1.50671856
       30.46735       69.65187826        1.55764525
       30.56704       67.63672239        1.61492616
       30.66674       68.19171575        1.51375911
       30.76643       67.58352910        1.47131695
       30.86612       67.44615953        1.50015821
       30.96582       66.60760514        1.50157253
       31.06551       64.47827659        1.54921583
       31.16520       67.24289618        1.48756022
       31.26490       67.20425089        1.47525711
       31.36459       71.25683423        1.54082448
       31.46428       68.35696479        1.57262207
       31.56398       69.84228224        1.60781838
       31.66367       67.64289040        1.47884133
       31.76336       70.34964941        1.50897231
       31.86306       69.21262859        1.48138699
       31.96275       70.54934093        1.52805884
       32.06244       70.29082273        1.57810967
       32.16214       71.46253376        1.49472986
       32.26183       70.07265823        1.51645412
       32.36152       75.20422761        1.62892390
       32.46122       74.77352346        1.64813833
       32.56091       78.25256646        1.71934440
       32.66060       80.90781276        1.66402049
       32.76030       84.79818722        1.66846539
       32.85999       95.46771676        1.79867347
       32.95969      111.40398948        1.96379592
       33.05938      143.75675351        2.27250094
       33.15907      190.15888954        2.46867282
       33.25877      279.81733453        3.09330337
       33.35846      434.93506591        3.89733927
       33.45815      654.03304296        5.00812182
       33.55785      868.16002224        5.82959348
       33.65754     1179.81670238        6.41282160
       33.75723     1406.91251036        7.06546810
       33.85693     1364.15368034        6.96963639
       33.95662     1118.68272882        6.43375292
       34.05631      824.46562979        5.42263570
       34.15601      497.93267211        4.08359632
       34.25570      305.75578972        3.18210072
       34.35539      193.64123995        2.58532385
       34.45509      129.78264482        2.23258516
       34.55478       98.30727890        1.82912536
       34.65447       84.00133840        1.62606683
       34.75417       80.03833338        1.61447310
       34.85386       77.72598484        1.57208771
       34.95355       75.82635916        1.60299399
       35.05325       73.78135495        1.63518083
       35.15294       69.96787020        1.50234842
       35.25263       68.88617101        1.51675118
       35.35233       68.80973603        1.55985422
       35.45202       68.87652992        1.63012214
       35.55171       65.88106469        1.55405231
       35.65141       66.24132033        1.50481153
       35.75110       64.74674862        1.47466530
       35.85079       60.76282502        1.42183333
       35.95049       63.26668846        1.48745051
       36.05018       59.65658154        1.42076601
       36.14987       60.23435490        1.37198107
       36.24957       58.31452530        1.40915633
       36.34926       59.28158230        1.44836336
       36.44895       58.47137972        1.46446294
       36.54865       57.81498532        1.40029642
       36.64834       55.83315893        1.34653508
       36.74803       55.07185678        1.35606205
       36.84773       52.77837413        1.31981600
       36.94742       55.40390915        1.46482608
       37.04711       56.43184444        1.30179283
       37.14681       56.07737562        1.32630811
       37.24650       53.93259775        1.33360233
       37.34619       54.73313438        1.37908289
       37.44589       53.49499647        1.45868199
       37.54558       51.85427343        1.30933895
       37.64528       54.52539265        1.34387422
       37.74497       51.70459426        1.28683490
       37.84466       51.63492861        1.36183023
       37.94436       52.56383228        1.40153482
       38.04405       50.57925716        1.24347087
       38.14374       51.53319865        1.26606767
       38.24344       51.56467296        1.28587020
       38.34313       52.31078920        1.35148439
       38.44282       50.32875335        1.43436563
       38.54252       53.99369447        1.33153013
       38.64221       55.21655724        1.34536380
       38.74190       55.59170306        1.36325689
       38.84160       63.99928505        1.46696342
       38.94129       68.05456728        1.58755620
       39.04098       75.42473560        1.50228899
       39.14068       83.69699061        1.64399837
       39.24037       87.08561303        1.67632374
       39.34006       80.75419606        1.67534114
       39.43976       74.53872767        1.75297571
       39.53945       68.14959363        1.50077373
       39.63914       59.13432835        1.39280374
       39.73884       53.75529633        1.33289425
       39.83853       51.72813867        1.29797166
       39.93822       49.90579064        1.35096532
       40.03792       50.49983744        1.24039049
       40.13761       50.19723507        1.24026364
       40.23730       49.92292623        1.28225560
       40.33700       50.53145953        1.32945492
       40.43669       49.13405291        1.37040325
       40.53638       52.98184741        1.32275013
       40.63608       53.71160225        1.35656218
       40.73577       52.05956366        1.32811839
       40.83546       53.46157123        1.35794695
       40.93516       49.03601031        1.32545237
       41.03485       51.80522759        1.28516250
       41.13454       49.56870418        1.25904619
       41.23424       48.86247677        1.27998991
       41.33393       48.83048760        1.33704960
       41.43362       46.25295494        1.34287046
       41.53332       47.07135880        1.26523658
       41.63301       48.88959032        1.31417254
       41.73270       49.15175879        1.28874081
       41.83240       47.71946163        1.30824385
       41.93209       49.15573818        1.31916156
       42.03179       48.56984277        1.19669283
       42.13148       46.32395874        1.22787209
       42.23117       47.28978641        1.24118762
       42.33087       45.90402999        1.30830969
       42.43056       47.71372963        1.30688404
       42.53025       46.62356717        1.24993514
       42.62995       47.04253890        1.26346002
       42.72964       46.61812323        1.26372411
       42.82933       45.64628086        1.27175340
       42.92903       45.60662315        1.22554386
       43.02872       45.48996562        1.15998580
       43.12841       43.96153769        1.16203863
       43.22811       44.75747839        1.23143605
       43.32780       45.60196514        1.30826945
       43.42749       44.48176287        1.26701858
       43.52719       46.14228650        1.24336061
       43.62688       45.09751895        1.22510781
       43.72657       44.56729466        1.24753352
       43.82627       44.72168163        1.30759840
       43.92596       42.96076164        1.15863291
       44.02565       41.91037852        1.13569609
       44.12535       43.32270710        1.19617717
       44.22504       41.12001485        1.21333834
       44.32473       40.60238563        1.27205679
       44.42443       43.12809703        1.25915487
       44.52412       42.12136915        1.20793906
       44.62381       44.91560672        1.26673665
       44.72351       43.07502716        1.19962988
       44.82320       43.25887229        1.34481884
       44.92289       42.54204064        1.10979178
       45.02259       40.78599708        1.09577777
       45.12228       42.32585411        1.15548412
       45.22197       42.09965387        1.18068991
       45.32167       43.16408844        1.32326574
       45.42136       43.31571591        1.20794154
       45.52105       44.11562445        1.20781449
       45.62075       41.48082406        1.18565989
       45.72044       41.01319549        1.17531590
       45.82013       41.99767450        1.29873165
       45.91983       42.17959137        1.11024879
       46.01952       40.80277426        1.12052217
       46.11921       40.33881712        1.11621039
       46.21891       39.37716853        1.15821737
       46.31860       38.11249299        1.23144376
       46.41829       41.06304517        1.18074175
       46.51799       41.95271110        1.19551579
       46.61768       41.60928077        1.18447755
       46.71738       38.05437415        1.16380617
       46.81707       39.57675911        1.23213331
       46.91676       39.41030114        1.07593307
       47.01646       41.11895755        1.12839286
       47.11615       39.13833819        1.12350781
       47.21584       40.16216872        1.17299307
       47.31554       40.82610505        1.28448998
       47.41523       40.55571018        1.19949723
       47.51492       40.28402059        1.20063506
       47.61462       40.46571013        1.19810739
       47.71431       41.60589429        1.22918079
       47.81400       38.49160045        1.21489344
       47.91370       38.69653263        1.07034554
       48.01339       40.52132270        1.09282606
       48.11308       37.37741701        1.08487403
       48.21278       40.92810065        1.18147805
       48.31247       37.23502774        1.16211409
       48.41216       38.52060867        1.10584348
       48.51186       38.18216926        1.13862014
       48.61155       40.56694661        1.16800402
       48.71124       38.42173198        1.15968812
       48.81094       39.76041790        1.17260957
       48.91063       37.26479345        1.01424176
       49.01032       37.86766892        1.05310164
       49.11002       37.42011322        1.08644731
       49.20971       37.49144773        1.14531275
       49.30940       40.16608041        1.22476177
       49.40910       40.35608096        1.16825552
       49.50879       39.05458082        1.17151020
       49.60848       39.14848433        1.18445634
       49.70818       40.22164348        1.24729122
       49.80787       39.48563194        1.19883026
       49.90756       39.58405600        1.08862022
       50.00726       37.70527750        1.08694147
       50.10695       37.35803993        1.10835640
       50.20664       36.99940532        1.15622329
       50.30634       38.09379187        1.22832009
       50.40603       38.41460149        1.15614509
       50.50572       38.22422601        1.15368075
       50.60542       40.36029754        1.18682860
       50.70511       40.27408445        1.21784115
       50.80480       39.38062988        1.18120856
       50.90450       39.62557230        1.07379397
       51.00419       38.00456143        1.06549195
       51.10388       38.56813127        1.10924784
       51.20358       34.91570379        1.12434274
       51.30327       37.91754342        1.16470670
       51.40297       39.65514704        1.14009731
       51.50266       38.98214138        1.13719748
       51.60235       38.72678499        1.15519769
       51.70205       39.22557305        1.23716864
       51.80174       38.67877021        1.13290262
       51.90143       39.76279603        1.07426317
       52.00113       38.38765736        1.05853831
       52.10082       39.72263110        1.11369019
       52.20051       36.89584649        1.17842929
       52.30021       38.55769096        1.15711468
       52.39990       36.51623522        1.10404490
       52.49959       37.27802484        1.13671934
       52.59929       36.48095862        1.14545830
       52.69898       36.98085897        1.26663768
       52.79867       38.45117875        1.09071651
       52.89837       37.54978945        1.03845466
       52.99806       38.55202575        1.06856034
       53.09775       37.36253298        1.08249111
       53.19745       35.72728495        1.21044395
       53.29714       35.34955296        1.06383451
       53.39683       36.53787852        1.12656976
       53.49653       37.66978889        1.15363021
       53.59622       36.46007388        1.13501605
       53.69591       34.36172496        1.21118873
       53.79561       36.59266308        1.04561493
       53.89530       35.76991308        1.01955552
       53.99499       36.07957197        1.04177675
       54.09469       36.33243257        1.09656548
       54.19438       36.84492062        1.20310541
       54.29407       36.63148637        1.10821365
       54.39377       34.84645655        1.08937475
       54.49346       35.76301171        1.10585621
       54.59315       35.61823289        1.12094903
       54.69285       36.72008811        1.21299435
       54.79254       34.94996029        1.01340842
       54.89223       34.28130860        0.99458533
       54.99193       33.87204963        1.01937360
       55.09162       36.39535148        1.10401872
       55.19131       34.75868686        1.16222654
       55.29101       37.06454862        1.11709215
       55.39070       35.43749308        1.12558089
       55.49039       35.08891572        1.11288643
       55.59009       36.34225376        1.16751106
       55.68978       33.92740857        1.15498596
       55.78947       32.86802566        0.99180908
       55.88917       36.58803806        1.04877001
       55.98886       36.57275367        1.05876982
       56.08856       38.51824667        1.12350910
       56.18825       41.70274458        1.26359267
       56.28794       45.52994177        1.20572266
       56.38764       53.77505843        1.35310974
       56.48733       55.18791945        1.38720200
       56.58702       60.62053883        1.49439639
       56.68672       62.24886533        1.56378999
       56.78641       62.40899639        1.35240809
       56.88610       63.43140011        1.37739913
       56.98580       55.12304603        1.28456327
       57.08549       47.10708413        1.25985746
       57.18518       43.39759164        1.25285364
       57.28488       37.41636714        1.08091808
       57.38457       35.36597922        1.11285229
       57.48426       33.71872489        1.10975185
       57.58396       34.17507577        1.14879682
       57.68365       34.03618889        1.16169114
       57.78334       33.46244776        1.00754722
       57.88304       33.87534999        1.02558001
       57.98273       32.86361399        1.02490489
       58.08242       33.83088531        1.12000119
       58.18212       32.42254752        1.11837558
       58.28181       29.92147685        1.00789323
       58.38150       32.86923697        1.11306374
       58.48120       32.13244674        1.12800630
       58.58089       31.54784127        1.13267259
       58.68058       32.41755732        1.12340151
       58.78028       32.84361730        0.98631936
       58.87997       30.49831256        0.93250470
       58.97966       32.75428215        0.99954606
       59.07936       33.05597594        1.06983525
       59.17905       32.36428289        1.07381681
       59.27874       32.16444804        1.01916380
       59.37844       31.87901624        1.04887055
       59.47813       30.07408741        1.06103490
       59.57782       30.21102763        1.11003002
       59.67752       30.59102864        1.03894794
       59.77721       30.21403750        0.94810401
       59.87690       30.21765164        0.94033890
       59.97660       31.32496034        1.00409734
       60.07629       29.58696222        1.05903587
       60.17598       29.81289567        1.01930704
       60.27568       30.03820419        0.99329662
       60.37537       29.95331434        1.00962463
       60.47506       30.21795379        1.05389153
       60.57476       28.43827018        1.12215355
       60.67445       31.58676886        1.01211587
       60.77415       30.44573674        0.94345660
       60.87384       29.54600329        0.91728883
       60.97353       29.64244717        0.97048830
       61.07323       29.86781199        1.09809690
       61.17292       30.49117473        0.95897800
       61.27261       29.71017324        0.97795915
       61.37231       28.53785329        0.99141874
       61.47200       28.30755830        1.02749380
       61.57169       29.23705071        1.18737639
       61.67139       29.41127274        0.97263284
       61.77108       30.53095613        0.97105657
       61.87077       29.03530353        0.94018132
       61.97047       29.27354573        0.97847433
       62.07016       30.10780709        1.12342378
       62.16985       28.35197018        0.95487249
       62.26955       27.88427728        0.98289845
       62.36924       28.24004953        1.02234583
       62.46893       28.92527201        1.07421209
       62.56863       28.97806864        1.20955031
       62.66832       30.41422975        1.00607090
       62.76801       27.70607770        0.93546629
       62.86771       29.71074302        0.94605448
       62.96740       29.75025124        0.97245723
       63.06709       28.73359526        1.06483661
       63.16679       29.13023077        0.94581858
       63.26648       28.25561721        0.96220947
       63.36617       29.51153944        1.02613183
       63.46587       30.81444036        1.08576392
       63.56556       29.09430495        1.12382115
       63.66525       29.12029363        0.95095766
       63.76495       30.00189502        0.93704330
       63.86464       28.79845566        0.91234693
       63.96433       30.70069043        0.98474555
       64.06403       29.23488512        1.02567708
       64.16372       28.63113284        0.94355010
       64.26341       29.49122298        1.00424752
       64.36311       30.53100483        1.04281210
       64.46280       29.16617249        1.07606533
       64.56249       29.75203750        1.10358392
       64.66219       30.91187356        0.98273898
       64.76188       30.24048446        0.95751832
       64.86157       30.14449288        0.95096982
       64.96127       30.83713241        1.01202370
       65.06096       30.23847270        1.08825369
       65.16065       30.32950741        0.98854544
       65.26035       30.46227802        1.01080400
       65.36004       30.48916379        1.05222435
       65.45974       31.62648202        1.10586178
       65.55943       34.21690688        1.20176781
       65.65912       31.20826751        0.99366773
       65.75882       31.95958116        0.99618258
       65.85851       32.81039785        1.01029421
       65.95820       35.96615732        1.11444030
       66.05790       34.12989637        1.12227361
       66.15759       36.27021453        1.09897091
       66.25728       38.57391012        1.16630468
       66.35698       40.87765997        1.24690179
       66.45667       44.40933981        1.37842342
       66.55636       49.34219691        1.44661811
       66.65606       57.15508352        1.38326860
       66.75575       76.99775558        1.58024044
       66.85544      109.69157977        1.87366653
       66.95514      167.22158616        2.40857607
       67.05483      242.61034115        2.92354071
       67.15452      359.04078224        3.39168919
       67.25422      503.38022445        4.22230462
       67.35391      611.37134572        4.88293232
       67.45360      709.59970442        5.59348574
       67.55330      795.34984258        5.73426068
       67.65299      849.67500227        5.36039646
       67.75268      870.98757800        5.36401454
       67.85238      829.12700605        5.27764075
       67.95207      717.28207104        5.21996789
       68.05176      605.05027690        4.51559117
       68.15146      426.56438195        3.71718915
       68.25115      287.54206541        3.22409501
       68.35084      189.15394668        2.73672079
       68.45054      139.42646329        2.59662183
       68.55023      105.08880756        1.93993927
       68.64992       72.53548311        1.49370468
       68.74962       53.16178913        1.28915945
       68.84931       43.01441957        1.17495908
       68.94900       41.11348496        1.29837498
       69.04870       38.52494679        1.05699016
       69.14839       35.70243896        1.05499905
       69.24808       35.27079644        1.13081802
       69.34778       33.64978091        1.13871545
       69.44747       32.25515721        1.28788297
       69.54716       32.75605179        1.01147321
       69.64686       28.97456623        0.93608111
       69.74655       32.56026749        0.99763043
       69.84625       30.17379130        0.98288834
       69.94594       30.53858268        1.11605705
       70.04563       31.65097061        0.94305970
       70.14533       30.04520352        0.95888668
       70.24502       29.20324264        1.00957411
       70.34471       30.02208676        1.08200932
       70.44441       31.23690651        1.29632413
       70.54410       30.18906763        0.99635905
       70.64379       33.09564436        1.03677417
       70.74349       31.67214351        1.02912272
       70.84318       34.46571419        1.12435651
       70.94287       34.29820681        1.23813353
       71.04257       34.99150396        1.03221424
       71.14226       37.24422574        1.10324756
       71.24195       36.35192333        1.14463063
       71.34165       34.59630934        1.17874614
       71.44134       32.71169205        1.27579557
       71.54103       32.77831939        1.03926568
       71.64073       30.12374798        0.97726803
       71.74042       28.86243200        0.94618187
       71.84011       27.31616157        0.95452426
       71.93981       26.16556784        1.01600160
       72.03950       25.36173491        0.84339956
       72.13919       25.04347232        0.87320192
       72.23889       24.07814256        0.88971110
       72.33858       26.23498480        1.03492030
       72.43827       24.03354246        1.08878582
       72.53797       26.19657434        0.92606217
       72.63766       25.73654699        0.90072414
       72.73735       26.12145702        0.88478724
       72.83705       25.56466992        0.92196471
       72.93674       24.64776019        0.96053745
       73.03643       25.46495599        0.84412613
       73.13613       24.28942181        0.86563161
       73.23582       24.36589347        0.91400880
       73.33551       24.24988836        1.01025902
       73.43521       23.38786477        1.07744408
       73.53490       24.95064081        0.89725037
       73.63459       25.09446217        0.88495124
       73.73429       24.63037768        0.86992091
       73.83398       25.89536189        0.94433887
       73.93367       25.50529388        0.98513847
       74.03337       25.60531442        0.86962621
       74.13306       26.76543046        0.93657877
       74.23275       26.45706707        0.97355456
       74.33245       25.50126699        1.05052904
       74.43214       27.00542196        1.11677651
       74.53184       26.38185353        0.93685030
       74.63153       24.81563004        0.90154417
       74.73122       26.04073985        0.91673187
       74.83092       23.76920233        0.92585351
       74.93061       24.47725001        0.95137560
       75.03030       24.48580545        0.85813969
       75.13000       24.36265108        0.88524659
       75.22969       23.37872799        0.90373305
       75.32938       24.69396745        1.01750081
       75.42908       23.31562986        1.00124193
       75.52877       22.79403814        0.85858432
       75.62846       23.85913450        0.87256601
       75.72816       23.95038819        0.87464379
       75.82785       23.30852269        0.93475873
       75.92754       24.31363041        0.90276586
       76.02724       24.63059708        0.84769333
       76.12693       24.41743391        0.87794816
       76.22662       23.51572587        0.90904735
       76.32632       22.82435106        1.01123230
       76.42601       24.13037409        0.97306253
       76.52570       23.62091406        0.88530919
       76.62540       22.66731431        0.86634062
       76.72509       23.21972493        0.86941110
       76.82478       22.98479054        0.99815728
       76.92448       23.31079228        0.79884677
       77.02417       23.07723334        0.82204925
       77.12386       24.75044447        0.89256679
       77.22356       22.90209555        0.91068996
       77.32325       20.31091594        1.04858987
       77.42294       22.79751339        0.88936284
       77.52264       24.24237079        0.90008535
       77.62233       22.97053480        0.87175178
       77.72202       21.59688888        0.84328715
       77.82172       24.76275495        1.05505737
       77.92141       24.28074111        0.80089867
       78.02110       23.17212725        0.84224610
       78.12080       20.27990931        0.83565934
       78.22049       24.31947530        0.97339815
       78.32018       22.64952496        1.09402097
       78.41988       22.28728121        0.85779550
       78.51957       20.97059785        0.85722146
       78.61926       22.67355486        0.88533774
       78.71896       21.99716372        0.87361718
       78.81865       22.59320125        0.98652965
       78.91834       20.94599208        0.73238736
       79.01804       21.10603605        0.80944798
       79.11773       23.06162923        0.88664965
       79.21743       20.37665412        0.89081807
       79.31712       23.93759312        1.08733332
       79.41681       21.99961480        0.84050150
       79.51651       25.33044054        0.91799147
       79.61620       22.71661712        0.86999274
       79.71589       21.54457257        0.87758524
       79.81559       22.26725594        0.94278462
       79.91528       22.21063863        0.80007829
       80.01497       22.63905065        0.84160653
       80.11467       22.94821508        0.88260727
       80.21436       22.94242144        0.94165938
       80.31405       23.15533172        1.12313496
       80.41375       22.03936637        0.83840711
       80.51344       20.87776594        0.81210976
       80.61313       23.43723577        0.88368058
       80.71283       21.23454314        0.87408199
       80.81252       22.13923687        1.00576076
       80.91221       24.34927654        0.78706238
       81.01191       21.74184760        0.79709832
       81.11160       22.73213483        0.87802378
       81.21129       21.50820897        0.92228218
       81.31099       22.40797218        1.04848407
       81.41068       21.33732383        0.79672895
       81.51037       20.99541009        0.81069778
       81.61007       21.78501067        0.87230770
       81.70976       22.13579878        0.91138649
       81.80945       22.51780486        0.97765417
       81.90915       24.24384959        0.77282397
       82.00884       21.79511152        0.78417517
       82.10853       22.96821180        0.89697726
       82.20823       21.94160514        0.96976218
       82.30792       22.49385581        1.02669006
       82.40761       20.94886525        0.80967577
       82.50731       24.15956865        0.87980921
       82.60700       21.87512128        0.89647849
       82.70669       23.11815000        1.00362463
       82.80639       21.64753332        0.92551681
       82.90608       23.26400098        0.77757366
       83.00577       21.76208016        0.79544704
       83.10547       24.15660934        0.98424532
       83.20516       23.39635844        1.08521115
       83.30485       22.19004370        1.00982217
       83.40455       21.74150716        0.83411374
       83.50424       23.96102116        0.85003327
       83.60393       24.05928113        0.93783706
       83.70363       24.64642724        1.06694191
       83.80332       25.84338277        0.95607633
       83.90302       26.74347735        0.81297430
       84.00271       25.62649028        0.82826276
       84.10240       26.58256372        1.02122893
       84.20210       25.62440345        1.21788820
       84.30179       27.11851518        1.01903554
       84.40148       25.29099265        0.86429470
       84.50118       26.83313863        0.87434495
       84.60087       27.10546219        0.99042277
       84.70056       25.60049974        1.25182419
       84.80026       25.70547721        0.87640078
       84.89995       25.70073851        0.79102225
       84.99964       24.05833794        0.79659915
       85.09934       22.53759084        0.90852106
       85.19903       21.22213453        1.50954963
       85.29872       22.66417506        0.82078989
       85.39842       21.94269793        0.82082787
       85.49811       22.75238621        0.81205821
       85.59780       22.92593202        0.91313478
       85.69750       22.82917784        1.63903059
       85.79719       21.66775137        0.76257875
       85.89688       21.99138508        0.75033217
       85.99658       23.15129544        0.78811965
       86.09627       21.24625797        0.86516987
       86.19596       20.47275282        1.63880545
       86.29566       20.91922164        0.77976718
       86.39535       21.56510042        0.80011384
       86.49504       22.07528279        0.79673773
       86.59474       21.18531519        0.84374625
       86.69443       19.25367012        1.68511059
       86.79412       22.25444008        0.75415217
       86.89382       22.07004413        0.73149740
       86.99351       21.42657832        0.74833160
       87.09320       22.04997337        0.84186946
       87.19290       22.72553514        2.02764016
       87.29259       20.87917684        0.78241327
       87.39228       21.65309634        0.81612899
       87.49198       22.45358366        0.81429917
       87.59167       21.60821837        0.80846433
       87.69136       18.80101538        2.25551007
       87.79106       22.04875324        0.75756196
       87.89075       22.86942162        0.76534476
       87.99044       21.75327975        0.77258603
       88.09014       22.17122138        0.82838419
       88.18983       23.81207184        4.56922262
       88.28952       21.50375554        0.83101639
       88.38922       21.70723758        0.84301512
       88.48891       21.55594248        0.80219889
       88.58861       21.98296079        0.78200331
       88.68830       26.88382900        6.77740976
       88.78799       22.59420540        0.76492986
       88.88769       20.25898524        0.70383721
       88.98738       21.91516553        0.76418787
       89.08707       21.68092523        0.78667113
       89.18677       17.37161532        5.73699495
       89.28646       20.62694951        0.77738875
       89.38615       21.39314781        0.79456581
       89.48585       21.94694644        0.78957855
       89.58554       20.32021794        0.74119926
       89.68523       26.16641292        6.79933790
       89.78493       21.07675115        0.72909739
       89.88462       20.70160960        0.71628453
       89.98431       22.53481959        0.77134843
       90.08401       21.84535578        0.78119274
       90.18370       17.11234710        5.72221124
       90.28339       20.70638687        0.77572631
       90.38309       22.39034158        0.81918768
       90.48278       20.91520407        0.77396816
       90.58247       21.12192688        0.76525545
       90.68217       20.05937588        5.88736450
       90.78186       22.46425008        0.76553066
       90.88155       23.50788235        0.76361590
       90.98125       23.09984946        0.77801857
       91.08094       22.74451965        0.79670233
       91.18063       29.47270920        7.23198149
       91.28033       23.49052083        0.83199766
       91.38002       24.84543437        0.87407317
       91.47971       24.04762968        0.83911456
       91.57941       23.61140316        0.81597181
       91.67910       20.58393353        5.77096843
       91.77879       24.50436146        0.79619429
       91.87849       25.00664023        0.78766859
       91.97818       25.65013635        0.82833569
       92.07787       27.28096225        0.88617304
       92.17757       25.16109113        6.46213811
       92.27726       28.17734132        0.92751994
       92.37695       33.27016573        1.04063888
       92.47665       36.61079171        1.04890125
       92.57634       45.14768815        1.12099902
       92.67603       50.14220402        7.72042153
       92.77573       56.05474929        1.20340797
       92.87542       71.97958126        1.33555878
       92.97511       98.49403960        1.62726906
       93.07481      139.01217351        2.20654301
       93.17450      148.89095005        4.30859160
       93.27420      186.79335878        2.38854282
       93.37389      230.91900509        2.58722029
       93.47358      272.89475157        2.83167711
       93.57328      305.59664937        3.47206248
       93.67297      314.85816226        4.75348264
       93.77266      325.87508453        2.99653463
       93.87236      343.61312885        2.92214040
       93.97205      361.02421422        3.15558673
       94.07174      374.20585764        4.20530886
       94.17144      384.98948285        4.87565343
       94.27113      375.75775206        3.56155535
       94.37082      362.60555180        3.38870586
       94.47052      338.06933391        3.13971540
       94.57021      311.92181131        3.97457077
       94.66990      291.93215425        3.87713803
       94.76960      248.20317744        2.76205093
       94.86929      189.17260356        2.21105952
       94.96898      126.91963022        1.83419641
       95.06868       97.04938866        1.83850440
       95.16837       79.39035939        2.26845952
       95.26806       70.63538329        1.65209458
       95.36776       59.66397516        1.37529146
       95.46745       49.20600602        1.19893087
       95.56714       41.49575810        1.26212756
       95.66684       37.25806710        1.35298506
       95.76653       30.92638672        1.02420587
       95.86622       30.72453323        0.86908685
       95.96592       29.51713565        0.87825074
       96.06561       27.25689532        1.08114521
       96.16530       29.14382915        1.18675544
       96.26500       27.38002255        1.03373144
       96.36469       31.06962276        0.98223033
       96.46438       32.08671167        0.97114123
       96.56408       32.28918887        1.21665658
       96.66377       33.74417662        1.20816827
       96.76346       33.37420880        1.07041491
       96.86316       33.89584135        0.93083378
       96.96285       34.97952311        0.97552572
       97.06254       37.29299773        1.35759701
       97.16224       37.30014742        1.29931091
       97.26193       36.53148899        1.20250016
       97.36162       35.32293896        1.10651008
       97.46132       36.98177197        1.05181831
       97.56101       36.55673379        1.32062146
       97.66071       36.82125712        1.18597460
       97.76040       36.18409196        1.06864825
       97.86009       31.85824919        0.90364449
       97.95979       30.40747461        0.89718091
       98.05948       31.15140734        1.27001232
       98.15917       28.34455568        1.08176852
       98.25887       27.65918763        1.02679352
       98.35856       26.90212756        0.95183624
       98.45825       24.71901378        0.84821385
       98.55795       22.33406074        1.05187666
       98.65764       23.86722485        0.93183088
       98.75733       23.52264204        0.86012381
       98.85703       22.75293093        0.78852919
       98.95672       21.91798310        0.77675910
       99.05641       23.00459983        1.10972065
       99.15611       22.88956559        0.94950178
       99.25580       20.32596465        0.86286456
       99.35549       21.56807938        0.84459570
       99.45519       21.65870540        0.78801630
       99.55488       22.42750498        1.07036221
       99.65457       22.40482603        0.88113128
       99.75427       21.69228077        0.81187150
       99.85396       22.77854648        0.80156097
       99.95365       21.04920720        0.75520447
      100.05335       22.56438631        1.10834637
      100.15304       19.97520972        0.87573174
      100.25273       20.44283129        0.87560613
      100.35243       20.33386289        0.86682162
      100.45212       22.35165599        0.82901044
      100.55181       22.75480240        1.10101643
      100.65151       21.71910546        0.87961586
      100.75120       23.17575300        0.84600321
      100.85089       22.85931642        0.80118776
      100.95059       23.33395845        0.78631294
      101.05028       20.95671324        1.06294443
      101.14997       20.97163564        0.87610582
      101.24967       21.43286494        0.87273030
      101.34936       19.49934811        0.83598053
      101.44905       20.45716598        0.81214478
      101.54875       22.23430987        1.06404493
      101.64844       20.97846080        0.84088293
      101.74813       21.61464972        0.80049358
      101.84783       20.98048382        0.76439502
      101.94752       21.68643537        0.81870996
      102.04721       21.98555935        0.99063026
      102.14691       20.68431963        0.86491370
      102.24660       20.53444935        0.85468420
      102.34630       21.62500768        0.88375326
      102.44599       21.44258747        0.89282316
      102.54568       20.74342593        0.91919828
      102.64538       21.26964113        0.82988890
      102.74507       20.68913660        0.77737099
      102.84476       21.38170210        0.77413820
      102.94446       21.42920867        0.87897794
      103.04415       19.49054308        0.89531962
      103.14384       20.31735043        0.85663781
      103.24354       21.21138262        0.86318652
      103.34323       22.08955960        0.87216228
      103.44292       22.08899825        0.94371130
      103.54262       20.25094117        0.87699692
      103.64231       20.70376168        0.80508575
      103.74200       18.97124171        0.73374006
      103.84170       19.73932780        0.73385305
      103.94139       22.98602532        0.96190621
      104.04108       20.36038550        0.87668388
      104.14078       19.87578062        0.83899387
      104.24047       20.64493776        0.85288408
      104.34016       20.36492848        0.85069869
      104.43986       22.02753878        1.00764174
      104.53955       20.54567212        0.87732231
      104.63924       21.08735795        0.83347890
      104.73894       21.91298161        0.81658672
      104.83863       20.77462161        0.77174897
      104.93832       20.10456230        0.91931355
      105.03802       19.83522090        0.85707697
      105.13771       20.34423344        0.83515380
      105.23740       20.25669897        0.83016083
      105.33710       21.26816833        0.85255324
      105.43679       21.65496044        1.00151144
      105.53648       19.49498213        0.85481192
      105.63618       20.35077675        0.80336128
      105.73587       22.09075411        0.80075803
      105.83556       21.61835858        0.77018546
      105.93526       20.89988562        0.95783232
      106.03495       19.82120083        0.84469787
      106.13464       21.27821617        0.84472970
      106.23434       21.12546398        0.84660431
      106.33403       20.10420406        0.83478200
      106.43372       21.96854231        1.04378517
      106.53342       22.19285101        0.91394629
      106.63311       21.45650987        0.81708287
      106.73280       20.20061379        0.75292150
      106.83250       21.70858953        0.76709207
      106.93219       21.35410466        0.98455048
      107.03189       21.07295755        0.86669792
      107.13158       18.53613939        0.78722320
      107.23127       21.10531216        0.85570948
      107.33097       20.06852305        0.83478243
      107.43066       20.36533849        1.01315259
      107.53035       22.40719249        0.91348628
      107.63005       19.61643068        0.77764197
      107.72974       20.60490675        0.76363281
      107.82943       20.82841402        0.75694859
      107.92913       19.54275407        0.96914761
      108.02882       21.54214955        0.89209199
      108.12851       21.36607844        0.84925818
      108.22821       19.46405112        0.79906201
      108.32790       21.09627522        0.82123136
      108.42759       20.22998676        1.01966183
      108.52729       19.52075895        0.84926937
      108.62698       22.40431235        0.82258919
      108.72667       21.07643607        0.76468678
      108.82637       20.50791992        0.77279554
      108.92606       20.45578083        0.98248940
      109.02575       21.65656776        0.88444618
      109.12545       23.03989759        0.88845505
      109.22514       23.27771768        0.89069291
      109.32483       24.04841548        0.98453021
      109.42453       24.93702687        1.05692987
      109.52422       24.77379201        0.95033467
      109.62391       26.84217423        0.93986381
      109.72361       26.62511682        0.89629141
      109.82330       26.88485141        0.84738226
      109.92299       30.05269553        1.16526307
      110.02269       27.91738255        0.97920040
      110.12238       28.45180906        0.98129390
      110.22207       28.55167347        0.97454660
      110.32177       28.97840804        1.00086572
      110.42146       27.36227909        1.17858911
      110.52115       29.70291172        1.04486999
      110.62085       28.84515281        0.97441287
      110.72054       31.36575032        0.95411197
      110.82023       29.48448444        0.95202754
      110.91993       29.98373668        1.11540693
      111.01962       31.18383981        1.05102864
      111.11931       29.42987781        1.02575350
      111.21901       28.10279955        0.98226749
      111.31870       28.21730194        1.06601452
      111.41839       28.04379330        1.10638001
      111.51809       27.41363649        0.99793175
      111.61778       27.05429368        0.93343147
      111.71748       24.64345266        0.82562806
      111.81717       23.71588638        0.87661843
      111.91686       21.93739577        0.88610762
      112.01656       21.07205892        0.84790684
      112.11625       22.57237157        0.88305853
      112.21594       22.47616406        0.87937711
      112.31564       20.36370207        0.92771580
      112.41533       22.56932269        0.95906426
      112.51502       21.98383778        0.87013088
      112.61472       19.42343180        0.77925505
      112.71441       19.39462204        0.73327573
      112.81410       20.97038217        0.85241096
      112.91380       21.59581874        0.88016703
      113.01349       19.85610935        0.82783420
      113.11318       20.15745509        0.83471981
      113.21288       20.54949816        0.84145330
      113.31257       20.40810120        0.92662509
      113.41226       19.39961358        0.85677677
      113.51196       20.80257415        0.83420143
      113.61165       19.90820288        0.78756515
      113.71134       20.34661922        0.75827109
      113.81104       20.22504595        0.86624250
      113.91073       20.59693360        0.85223887
      114.01042       20.82609625        0.84974953
      114.11012       19.72572412        0.82558381
      114.20981       19.18616661        0.81767238
      114.30950       17.51866923        0.88529810
      114.40920       20.73449753        0.88919357
      114.50889       19.79432585        0.81324946
      114.60858       20.19295361        0.79659289
      114.70828       22.81445703        0.81819036
      114.80797       20.33203744        0.88025469
      114.90766       21.24380687        0.84689186
      115.00736       19.67421153        0.80946473
      115.10705       21.25545947        0.84408815
      115.20674       20.31891531        0.83813890
      115.30644       19.69297824        0.94515817
      115.40613       21.81438731        0.90225569
      115.50582       20.62994345        0.83010812
      115.60552       21.04668428        0.81182999
      115.70521       20.90807782        0.77892301
      115.80490       19.62638908        0.87808297
      115.90460       20.51782103        0.81217222
      116.00429       22.08146899        0.85251671
      116.10398       20.45553868        0.82574520
      116.20368       20.79431825        0.85103234
      116.30337       20.02410265        0.99755707
      116.40307       21.77495776        0.90944546
      116.50276       20.18769176        0.82944954
      116.60245       22.43800673        0.84073158
      116.70215       20.83279488        0.78052916
      116.80184       21.56111355        0.94201257
      116.90153       20.30016964        0.82272761
      117.00123       20.98393624        0.82906513
      117.10092       22.62265933        0.88349032
      117.20061       20.25492534        0.84862788
      117.30031       21.64889037        1.05494332
      117.40000       21.68647705        0.88448105
      117.49969       20.96881056        0.82551621
      117.59939       22.03593777        0.80754036
      117.69908       22.84178410        0.79593128
      117.79877       21.77147107        0.95283464
      117.89847       22.15641906        0.83463021
      117.99816       22.92502208        0.86137053
      118.09785       23.97879192        0.90235909
      118.19755       24.05874982        0.94422050
      118.29724       24.23933991        1.03296366
      118.39693       26.40859945        0.98357567
      118.49663       27.91057071        0.95105483
      118.59632       30.73692247        0.96056779
      118.69601       35.04063743        1.07197576
      118.79571       34.18973424        1.14541593
      118.89540       36.29379490        1.10317291
      118.99509       41.38303158        1.17831193
      119.09479       46.58549341        1.25996677
      119.19448       47.35503696        1.38336863
      119.29417       53.45630968        1.52851836
      119.39387       58.33388482        1.46972889
      119.49356       68.76081732        1.50114702
      119.59325       82.57418152        1.60118749
      119.69295      102.01621784        1.88370157
      119.79264      114.48327508        2.02162791
      119.89233      136.94130006        2.14388815
      119.99203      152.05527297        2.20646128
      120.09172      172.88163305        2.40166072
      120.19141      183.56475484        2.77714982
      120.29111      196.94233268        2.84296722
      120.39080      211.32043857        2.81440319
      120.49049      221.19429023        2.68667356
      120.59019      231.53137416        2.67145675
      120.68988      243.94042561        2.95603364
      120.78957      244.46447599        2.88932429
      120.88927      248.17341018        2.86292195
      120.98896      254.55176227        2.86954400
      121.08866      254.58649720        2.88176824
      121.18835      263.30576649        3.36805907
      121.28804      267.93048388        3.31192632
      121.38774      273.45006645        3.17408340
      121.48743      280.12297000        3.04213367
      121.58712      283.82688849        2.91958764
      121.68682      273.29178309        3.15410242
      121.78651      267.47948885        2.97691723
      121.88620      267.44026685        2.93989176
      121.98590      260.98322653        2.92161043
      122.08559      252.45110235        2.92873539
      122.18528      242.00120406        3.34691759
      122.28498      235.10336638        3.09727357
      122.38467      210.82698630        2.80348019
      122.48436      189.33292111        2.51025348
      122.58406      169.89428288        2.24855070
      122.68375      145.46770573        2.35426071
      122.78344      125.56854776        2.05240786
      122.88314      106.68580717        1.87746101
      122.98283       87.66177833        1.73765601
      123.08252       82.89445906        1.68374209
      123.18222       70.49002796        1.80740926
      123.28191       64.98793944        1.57235033
      123.38160       57.50910957        1.42767234
      123.48130       53.19305333        1.32150125
      123.58099       45.81893979        1.14530411
      123.68068       43.96168320        1.27971261
      123.78038       38.60142507        1.08257385
      123.88007       34.77302889        1.00869387
      123.97976       33.55179468        1.00685729
      124.07946       29.43069775        0.93207096
      124.17915       28.64557727        1.03539193
      124.27884       25.93476883        0.88195967
      124.37854       22.53774178        0.77326019
      124.47823       22.58457345        0.75759368
      124.57792       22.51716238        0.80607546
