        5.04553       72.92306493        3.21572511
        5.14523       70.21260606        3.01882119
        5.24492       61.34703315        2.78200905
        5.34461       68.59805590        2.70900342
        5.44431       69.96168700        2.99245350
        5.54400       60.77861610        2.32400253
        5.64369       68.61155083        2.48214224
        5.74339       64.90921629        2.16355094
        5.84308       66.20076393        2.21155230
        5.94277       63.42829486        2.15892843
        6.04247       66.04047289        2.13707553
        6.14216       65.86912235        1.96476342
        6.24185       64.72616364        2.00696300
        6.34155       64.43040562        1.91041936
        6.44124       62.03993714        1.97609186
        6.54093       58.01925221        1.81167491
        6.64063       61.78458777        1.77229477
        6.74032       65.41804191        1.82394556
        6.84001       66.15330136        1.82378991
        6.93971       69.98739057        1.89241367
        7.03940       65.87074218        1.70998581
        7.13909       63.50190997        1.67133795
        7.23879       67.15435122        1.69466370
        7.33848       65.98719344        1.70571352
        7.43817       67.13549694        1.68425019
        7.53787       66.56146743        1.65531227
        7.63756       67.31289010        1.58762204
        7.73725       66.37048255        1.63902271
        7.83695       67.98845002        1.60494864
        7.93664       67.94080557        1.67370484
        8.03633       66.92451058        1.49561905
        8.13603       66.35916799        1.47186678
        8.23572       66.10799899        1.49795260
        8.33541       69.13523228        1.51681266
        8.43511       66.01166887        1.56803409
        8.53480       69.52676851        1.49129640
        8.63449       69.18248155        1.47383240
        8.73419       71.36516418        1.46156991
        8.83388       70.33254486        1.45908164
        8.93357       70.47406125        1.45730083
        9.03327       71.44592597        1.42908996
        9.13296       71.85476870        1.42578771
        9.23265       73.03446534        1.45532512
        9.33235       73.61584845        1.50404646
        9.43204       73.15432303        1.49348136
        9.53174       72.21134736        1.42581554
        9.63143       74.66239078        1.49856906
        9.73112       76.87361865        1.52091845
        9.83082       73.81231854        1.55483319
        9.93051       73.25219933        1.52584852
       10.03020       78.48433500        1.52700857
       10.12990       76.14097569        1.46793854
       10.22959       79.97221399        1.56570623
       10.32928       78.91206315        1.62027521
       10.42898       78.46224406        1.59479923
       10.52867       82.09374840        1.57800086
       10.62836       78.08607020        1.53842109
       10.72806       78.21133857        1.55880951
       10.82775       81.30204415        1.58555917
       10.92744       85.05257210        1.64605397
       11.02714       85.86028789        1.57977632
       11.12683       83.53109459        1.61045604
       11.22652       81.52206162        1.60948969
       11.32622       85.24335027        1.68949671
       11.42591       86.12469638        1.63871644
       11.52560       87.84146919        1.63645668
       11.62530       86.30351445        1.63641283
       11.72499       90.91169031        1.71019582
       11.82468       93.23532389        1.77888013
       11.92438       86.29799031        1.62573806
       12.02407       89.55688050        1.63777703
       12.12376       90.78334005        1.65894293
       12.22346       90.23776261        1.75495410
       12.32315       92.78119489        1.79703588
       12.42284       94.60171070        1.73023417
       12.52254       94.86348584        1.71888683
       12.62223       95.94753719        1.77664474
       12.72192       94.92750793        1.71680630
       12.82162      100.72994322        1.91088125
       12.92131       96.24456076        1.71450411
       13.02100       99.05849938        1.71915375
       13.12070      102.78488359        1.78030658
       13.22039      102.34101348        1.82842217
       13.32008      104.66747032        1.91958109
       13.41978      102.64415894        1.80693567
       13.51947      106.01682533        1.87069488
       13.61916      102.52234728        1.77589391
       13.71886      106.75175124        1.90063809
       13.81855      109.36337175        1.95295390
       13.91824      107.53446341        1.82244142
       14.01794      108.37335353        1.78974220
       14.11763      110.34619785        1.87045854
       14.21733      112.22159092        1.89572971
       14.31702      112.26861651        1.99148852
       14.41671      111.87296781        1.92808907
       14.51641      117.58774457        1.92271293
       14.61610      118.01042088        1.93568761
       14.71579      117.31591915        1.96515959
       14.81549      120.79488821        2.09187816
       14.91518      118.73940247        1.89616088
       15.01487      117.01532174        1.91628262
       15.11457      117.38780629        1.94226194
       15.21426      119.43281189        2.01856577
       15.31395      121.64675458        2.09082369
       15.41365      121.50016788        2.02188155
       15.51334      125.16481323        1.99051429
       15.61303      123.62145696        2.03679353
       15.71273      121.53708414        1.98375145
       15.81242      125.61574177        2.11509112
       15.91211      125.16028561        2.03653273
       16.01181      119.61470268        1.91302805
       16.11150      126.48346392        2.02677069
       16.21119      120.40274287        2.03376839
       16.31089      123.27913212        2.06112492
       16.41058      121.99603995        2.00805971
       16.51027      124.05287847        2.06111318
       16.60997      122.58059319        1.97644976
       16.70966      124.39969061        2.04007493
       16.80935      122.38017897        2.04756588
       16.90905      126.55112891        2.02000844
       17.00874      125.34459119        1.92575921
       17.10843      123.94923995        2.02966783
       17.20813      122.31299999        2.03053953
       17.30782      123.62394937        2.05810100
       17.40751      120.69023565        2.03179610
       17.50721      118.03010054        1.94622794
       17.60690      120.50571980        2.03195442
       17.70659      121.92914179        2.05364208
       17.80629      118.51487038        2.04844239
       17.90598      117.82514126        1.91097784
       18.00567      112.87766404        1.90389572
       18.10537      113.90020999        1.86073613
       18.20506      113.05449762        2.03072792
       18.30475      112.73552957        1.93437723
       18.40445      112.35236495        1.87905996
       18.50414      107.05944297        1.89402330
       18.60383      109.39985442        1.88423233
       18.70353      107.66462543        1.97728912
       18.80322      105.41307451        1.84057737
       18.90292      108.06789513        1.84513376
       19.00261      106.18451219        1.77329172
       19.10230      101.81375050        1.85036622
       19.20200      103.44780559        1.90879173
       19.30169       98.71189055        1.79736451
       19.40138       98.66519384        1.78050458
       19.50108       98.02503881        1.81510562
       19.60077       99.14829833        1.80735693
       19.70046       98.51054708        1.88806865
       19.80016       95.09265313        1.75638393
       19.89985       97.38645352        1.72563286
       19.99954       92.90569248        1.70200586
       20.09924       91.34364904        1.70822174
       20.19893       92.13595237        1.83412363
       20.29862       93.27693666        1.74814700
       20.39832       90.22602437        1.77411051
       20.49801       91.82685452        1.75571070
       20.59770       87.60065715        1.74957104
       20.69740       87.78719932        1.81355532
       20.79709       83.95169481        1.68862841
       20.89678       85.84084328        1.66453644
       20.99648       86.02142838        1.69360103
       21.09617       82.75366309        1.73412205
       21.19586       83.48579605        1.74101334
       21.29556       81.70806401        1.68296345
       21.39525       80.30483965        1.67088264
       21.49494       80.64320822        1.64516009
       21.59464       81.83898880        1.69338631
       21.69433       80.38054227        1.74732535
       21.79402       79.38108836        1.58516391
       21.89372       80.92607584        1.56810497
       21.99341       78.77126178        1.61253265
       22.09310       77.61831572        1.60745074
       22.19280       76.01465491        1.68689246
       22.29249       75.07319970        1.56430980
       22.39218       75.68552016        1.60519305
       22.49188       75.71000623        1.60737906
       22.59157       76.16524136        1.63311978
       22.69126       77.94626665        1.73627295
       22.79096       77.80141442        1.56725619
       22.89065       73.49868859        1.48819494
       22.99034       74.06895947        1.53512194
       23.09004       69.28297299        1.55037740
       23.18973       76.04585860        1.62183559
       23.28942       73.53614727        1.57130847
       23.38912       72.14447309        1.57195890
       23.48881       71.87106837        1.57687764
       23.58851       69.48605420        1.57006691
       23.68820       71.93336663        1.68242383
       23.78789       72.75142794        1.50652257
       23.88759       70.42116896        1.50321523
       23.98728       70.71022578        1.53716993
       24.08697       71.76020262        1.51845666
       24.18667       72.07691389        1.63205606
       24.28636       70.77448256        1.53405106
       24.38605       67.96119731        1.53576633
       24.48575       69.03014217        1.54551948
       24.58544       68.02249599        1.58079276
       24.68513       69.46896097        1.59798042
       24.78483       69.15222672        1.46929915
       24.88452       67.40864344        1.44709481
       24.98421       66.09660020        1.48206592
       25.08391       68.43013454        1.53948436
       25.18360       68.53992403        1.57400335
       25.28329       68.46342855        1.51640261
       25.38299       67.42571970        1.50024835
       25.48268       69.97610507        1.53758193
       25.58237       68.02579692        1.57720706
       25.68207       68.87633358        1.55513176
       25.78176       67.01362764        1.44178984
       25.88145       66.62590350        1.47589330
       25.98115       66.99475834        1.49587825
       26.08084       67.40591726        1.53756621
       26.18053       67.25238064        1.57788361
       26.28023       66.81533627        1.48835636
       26.37992       67.56506207        1.49770940
       26.47961       68.21899932        1.55442209
       26.57931       67.21666653        1.61010071
       26.67900       67.18280663        1.50635408
       26.77869       66.91561702        1.49267989
       26.87839       65.87332150        1.46498275
       26.97808       69.99594977        1.50070689
       27.07777       68.55263551        1.59998097
       27.17747       64.76437389        1.48446598
       27.27716       67.10122391        1.47297332
       27.37685       67.09046374        1.53043940
       27.47655       66.32561303        1.49795874
       27.57624       64.13016301        1.53874151
       27.67593       63.87339346        1.50390515
       27.77563       67.53874352        1.48074410
       27.87532       64.29742268        1.42056531
       27.97501       65.36879922        1.46116216
       28.07471       66.89073043        1.56654359
       28.17440       66.48702698        1.49386708
       28.27410       68.34955843        1.51157282
       28.37379       64.74722765        1.50633333
       28.47348       64.57358580        1.49451718
       28.57318       65.25218063        1.62752770
       28.67287       69.17175687        1.49424247
       28.77256       68.00710978        1.45431214
       28.87226       63.98746171        1.44514310
       28.97195       65.00794300        1.46219065
       29.07164       66.58211369        1.61085904
       29.17134       65.40630974        1.45439806
       29.27103       67.13588042        1.49738054
       29.37072       67.51803089        1.56349610
       29.47042       66.80397606        1.53277057
       29.57011       67.11114150        1.62582537
       29.66980       68.44307486        1.49723138
       29.76950       67.99837961        1.49151446
       29.86919       65.59159834        1.43543970
       29.96888       66.07010435        1.50655117
       30.06858       65.63935767        1.55044254
       30.16827       65.99615332        1.47076381
       30.26796       65.69978643        1.46907527
       30.36766       68.37706823        1.52942433
       30.46735       67.63856565        1.53419283
       30.56704       68.17895110        1.62072165
       30.66674       67.79935869        1.50872658
       30.76643       66.56537971        1.45950867
       30.86612       67.52926347        1.50044098
       30.96582       67.67898158        1.51300977
       31.06551       65.30414604        1.55848282
       31.16520       67.32770830        1.48786235
       31.26490       69.27884455        1.49732578
       31.36459       68.85486668        1.51384563
       31.46428       69.85405503        1.58915447
       31.56398       67.64226039        1.58148267
       31.66367       69.02378757        1.49329404
       31.76336       68.60470340        1.48940296
       31.86306       72.18416011        1.51236967
       31.96275       66.16395293        1.47892658
       32.06244       71.57116115        1.59180822
       32.16214       69.98243299        1.47845219
       32.26183       73.78857732        1.55568883
       32.36152       73.59815643        1.61064719
       32.46122       76.79050631        1.66962638
       32.56091       74.72614896        1.67921461
       32.66060       80.30374902        1.65704729
       32.76030       89.18850575        1.71065553
       32.85999       93.94904795        1.78344313
       32.95969      114.36816102        1.98911558
       33.05938      144.07359376        2.27405729
       33.15907      189.37107892        2.46243196
       33.25877      286.53009918        3.12963092
       33.35846      440.95911151        3.92344882
       33.45815      673.05818933        5.08178948
       33.55785      881.16240585        5.87338133
       33.65754     1175.95160350        6.39891468
       33.75723     1415.34030095        7.08584580
       33.85693     1351.30371067        6.93098644
       33.95662     1109.98156817        6.40420194
       34.05631      812.60791951        5.37905862
       34.15601      488.25799309        4.04063428
       34.25570      288.35683904        3.08696446
       34.35539      189.99899114        2.55945919
       34.45509      130.38728389        2.23687156
       34.55478       99.22268962        1.83689544
       34.65447       85.07575352        1.63579501
       34.75417       78.39185745        1.59699657
       34.85386       75.72988325        1.55098760
       34.95355       74.41647491        1.58725536
       35.05325       72.60946027        1.62137456
       35.15294       70.92122205        1.51195198
       35.25263       70.03058348        1.52870547
       35.35233       69.75539821        1.56991592
       35.45202       68.86578381        1.62929313
       35.55171       64.65375874        1.53877626
       35.65141       65.09152478        1.49098873
       35.75110       63.89820297        1.46429360
       35.85079       62.30114151        1.43918164
       35.95049       59.58520364        1.44270563
       36.05018       61.27907628        1.43942395
       36.14987       62.51326912        1.39721087
       36.24957       56.50916591        1.38648139
       36.34926       59.00892358        1.44439202
       36.44895       56.26771048        1.43586527
       36.54865       56.66328000        1.38562267
       36.64834       55.48106033        1.34168700
       36.74803       56.75518933        1.37612430
       36.84773       54.70866924        1.34325232
       36.94742       55.08168073        1.45991372
       37.04711       56.90468768        1.30669547
       37.14681       54.11918950        1.30228942
       37.24650       57.29018359        1.37406735
       37.34619       54.46430434        1.37508576
       37.44589       54.46144117        1.47121845
       37.54558       54.10135404        1.33694374
       37.64528       53.32421993        1.32835754
       37.74497       51.12839559        1.27906591
       37.84466       51.51622247        1.35967202
       37.94436       54.03657469        1.42049930
       38.04405       52.67796406        1.26855915
       38.14374       53.13068391        1.28506417
       38.24344       52.40899514        1.29583729
       38.34313       51.88415986        1.34536088
       38.44282       54.19945551        1.48807475
       38.54252       56.30122436        1.35921654
       38.64221       55.96561630        1.35391308
       38.74190       57.80937257        1.38969873
       38.84160       64.81258442        1.47566443
       38.94129       69.12703904        1.59939194
       39.04098       79.08685442        1.53787524
       39.14068       84.56513412        1.65184574
       39.24037       82.61844454        1.63179083
       39.34006       79.63945801        1.66295370
       39.43976       75.89935028        1.76823153
       39.53945       68.35403880        1.50238799
       39.63914       57.66378786        1.37470938
       39.73884       53.87492275        1.33380782
       39.83853       52.96718170        1.31291969
       39.93822       50.65300841        1.36049302
       40.03792       50.09660980        1.23487774
       40.13761       50.28609924        1.24083034
       40.23730       50.49999691        1.28911741
       40.33700       53.69981442        1.37007149
       40.43669       52.12471985        1.41104286
       40.53638       50.63077213        1.29239842
       40.63608       50.27603455        1.31172713
       40.73577       51.71253569        1.32309715
       40.83546       51.17779178        1.32794073
       40.93516       51.04317851        1.35182588
       41.03485       48.51937177        1.24304991
       41.13454       48.10211905        1.23967865
       41.23424       47.21037716        1.25754537
       41.33393       47.48456652        1.31786009
       41.43362       47.90024858        1.36606935
       41.53332       44.91562193        1.23529312
       41.63301       48.07944441        1.30263774
       41.73270       47.32423779        1.26392456
       41.83240       47.37287260        1.30290583
       41.93209       49.63945629        1.32508908
       42.03179       45.72059158        1.16043816
       42.13148       45.54460295        1.21693943
       42.23117       47.97467253        1.24963646
       42.33087       46.88895903        1.32174966
       42.43056       47.99321592        1.31015496
       42.53025       46.57504079        1.24874394
       42.62995       45.72662035        1.24506554
       42.72964       45.05366796        1.24173082
       42.82933       46.64839697        1.28513161
       42.92903       45.21154132        1.21968021
       43.02872       45.69723009        1.16213338
       43.12841       47.12965036        1.20280523
       43.22811       43.74149616        1.21680848
       43.32780       43.62946344        1.27901677
       43.42749       44.74607520        1.27024221
       43.52719       47.72550934        1.26404135
       43.62688       44.38881208        1.21488754
       43.72657       45.02149423        1.25335527
       43.82627       46.40298747        1.33146056
       43.92596       43.69693373        1.16804628
       44.02565       42.88677276        1.14839580
       44.12535       43.44971685        1.19741868
       44.22504       42.24416759        1.22933323
       44.32473       44.33402287        1.32883928
       44.42443       42.92199782        1.25559162
       44.52412       41.02194755        1.19150779
       44.62381       42.55184116        1.23231409
       44.72351       41.79732956        1.18113858
       44.82320       44.42167855        1.36224517
       44.92289       43.16143959        1.11738569
       45.02259       42.21057545        1.11432890
       45.12228       43.15217972        1.16624187
       45.22197       42.57657090        1.18686798
       45.32167       42.47073444        1.31199513
       45.42136       41.22451980        1.17782263
       45.52105       42.63965416        1.18686071
       45.62075       41.59836542        1.18683196
       45.72044       39.74423794        1.15643732
       45.82013       41.85571045        1.29596904
       45.91983       40.05391539        1.08135915
       46.01952       41.46821760        1.12916345
       46.11921       40.49188453        1.11785042
       46.21891       41.60468342        1.19011174
       46.31860       40.99392372        1.27673281
       46.41829       40.06842213        1.16580821
       46.51799       40.28437852        1.17092582
       46.61768       38.83235079        1.14365850
       46.71738       40.12656713        1.19464985
       46.81707       41.26344138        1.25765160
       46.91676       40.14115965        1.08542520
       47.01646       40.22178516        1.11549641
       47.11615       43.47210185        1.18375853
       47.21584       38.92034854        1.15416488
       47.31554       40.75837801        1.28286762
       47.41523       40.80989000        1.20274294
       47.51492       41.82743257        1.22296196
       47.61462       38.38486534        1.16630254
       47.71431       42.55218017        1.24258847
       47.81400       40.58611377        1.24706925
       47.91370       40.78281981        1.09843182
       48.01339       39.94392070        1.08452102
       48.11308       36.55160731        1.07232698
       48.21278       40.08662749        1.16872880
       48.31247       37.38632331        1.16397714
       48.41216       37.97432699        1.09747845
       48.51186       41.13235176        1.18141048
       48.61155       37.67928159        1.12505943
       48.71124       40.37997130        1.18844796
       48.81094       39.96482947        1.17512208
       48.91063       39.97357667        1.05011098
       49.01032       39.99138849        1.08184824
       49.11002       38.63040710        1.10345103
       49.20971       40.04495182        1.18327567
       49.30940       37.10602359        1.17654159
       49.40910       38.47554334        1.14013956
       49.50879       38.47042284        1.16218917
       49.60848       40.35764541        1.20214484
       49.70818       39.84868557        1.24094250
       49.80787       39.17727877        1.19361156
       49.90756       36.24002075        1.04104389
       50.00726       38.11152665        1.09232669
       50.10695       40.75329398        1.15727463
       50.20664       38.08742757        1.17264209
       50.30634       36.24818601        1.19759619
       50.40603       41.28779872        1.19821370
       50.50572       39.70786818        1.17541524
       50.60542       39.19535691        1.16902019
       50.70511       38.26139860        1.18641976
       50.80480       40.19178863        1.19283339
       50.90450       37.38153474        1.04240896
       51.00419       38.37733214        1.07025791
       51.10388       39.26689931        1.11879787
       51.20358       40.46689509        1.21015454
       51.30327       39.01627315        1.18099992
       51.40297       38.58438955        1.12406997
       51.50266       38.47388581        1.12925119
       51.60235       36.84268032        1.12618154
       51.70205       39.32763542        1.23824776
       51.80174       38.44484298        1.12897475
       51.90143       37.52535120        1.04306436
       52.00113       38.49113858        1.05951118
       52.10082       37.30856986        1.07875626
       52.20051       38.42286063        1.20211789
       52.30021       38.05866154        1.14908534
       52.39990       35.43569276        1.08707469
       52.49959       37.53389535        1.14013286
       52.59929       39.50734549        1.19164471
       52.69898       36.38121861        1.25575671
       52.79867       39.85134373        1.10997687
       52.89837       38.63513719        1.05294405
       52.99806       37.13533552        1.04823558
       53.09775       38.30257877        1.09559013
       53.19745       35.85044057        1.21201110
       53.29714       37.33517110        1.09291407
       53.39683       39.42147034        1.16980164
       53.49653       38.74577100        1.16953254
       53.59622       38.26531661        1.16235238
       53.69591       35.08318976        1.22334295
       53.79561       37.09176932        1.05228727
       53.89530       37.57130803        1.04453248
       53.99499       35.29872860        1.02996753
       54.09469       37.10051968        1.10764975
       54.19438       35.63415490        1.18260900
       54.29407       37.15625135        1.11566384
       54.39377       36.65653358        1.11690356
       54.49346       36.57618766        1.11790960
       54.59315       35.11211714        1.11245555
       54.69285       34.65860621        1.17785482
       54.79254       35.38199070        1.01922944
       54.89223       35.58751554        1.01296865
       54.99193       36.27458995        1.05454586
       55.09162       35.93221803        1.09647990
       55.19131       34.45156261        1.15656823
       55.29101       37.22962560        1.11910115
       55.39070       34.53600758        1.11065544
       55.49039       32.64946391        1.07294397
       55.59009       35.13317454        1.14737894
       55.68978       36.76346075        1.20189948
       55.78947       35.82066257        1.03506720
       55.88917       35.30848921        1.02977473
       55.98886       36.27133830        1.05393134
       56.08856       40.34055871        1.14936117
       56.18825       43.77919769        1.29421090
       56.28794       47.28188295        1.22825185
       56.38764       52.29052502        1.33365344
       56.48733       55.93474876        1.39599406
       56.58702       62.57660759        1.51777211
       56.68672       62.06220232        1.56076073
       56.78641       64.32937807        1.37256502
       56.88610       61.81378693        1.35905566
       56.98580       52.86208902        1.25729570
       57.08549       47.04665552        1.25850381
       57.18518       42.92223035        1.24541403
       57.28488       39.22702524        1.10636055
       57.38457       35.81212037        1.11938529
       57.48426       37.14095098        1.16435363
       57.58396       33.37347201        1.13472035
       57.68365       33.82248086        1.15752968
       57.78334       32.31325669        0.98962566
       57.88304       30.40792723        0.97113035
       57.98273       32.89915481        1.02501799
       58.08242       32.31051692        1.09401121
       58.18212       32.57154682        1.12046513
       58.28181       31.45182900        1.03295966
       58.38150       32.40077377        1.10460743
       58.48120       34.26305363        1.16439359
       58.58089       31.69581787        1.13484243
       58.68058       29.84735086        1.07737957
       58.78028       30.67010094        0.95263621
       58.87997       32.17195058        0.95739585
       58.97966       32.35645294        0.99301409
       59.07936       32.65213820        1.06280557
       59.17905       31.10386377        1.05219584
       59.27874       34.44003561        1.05423451
       59.37844       29.71019665        1.01204466
       59.47813       32.10515709        1.09588845
       59.57782       31.34832934        1.13029083
       59.67752       31.27674905        1.05010146
       59.77721       29.66402515        0.93901024
       59.87690       30.81270440        0.94916387
       59.97660       31.07606448        0.99965959
       60.07629       31.55094904        1.09322892
       60.17598       31.38157559        1.04538997
       60.27568       30.25622639        0.99647288
       60.37537       30.72900859        1.02220249
       60.47506       29.03183615        1.03250941
       60.57476       29.65678908        1.14549998
       60.67445       29.53999830        0.97827807
       60.77415       29.13228924        0.92243826
       60.87384       29.09428820        0.90984178
       60.97353       30.34553147        0.98153239
       61.07323       31.67586293        1.13043366
       61.17292       28.86327968        0.93256825
       61.27261       29.26658983        0.97019624
       61.37231       28.71761369        0.99411388
       61.47200       28.87469533        1.03730978
       61.57169       32.11945502        1.24412784
       61.67139       30.11310433        0.98377038
       61.77108       29.35314718        0.95168929
       61.87077       29.22982955        0.94292534
       61.97047       28.07103473        0.95771012
       62.07016       28.16384129        1.08600315
       62.16985       27.94854509        0.94763130
       62.26955       29.72187702        1.01440041
       62.36924       27.64955130        1.01114199
       62.46893       29.06522810        1.07634879
       62.56863       29.10931111        1.21176915
       62.66832       27.90842299        0.96322959
       62.76801       28.97115994        0.95621737
       62.86771       27.51219182        0.90991106
       62.96740       29.77982459        0.97252177
       63.06709       30.21899250        1.09160277
       63.16679       27.94409632        0.92592172
       63.26648       30.00733390        0.99122419
       63.36617       28.31018284        1.00455029
       63.46587       30.28251605        1.07586612
       63.56556       28.64518610        1.11461359
       63.66525       27.45897690        0.92297756
       63.76495       30.00768082        0.93672955
       63.86464       30.54638312        0.93928248
       63.96433       30.55880347        0.98203832
       64.06403       26.61210929        0.97806942
       64.16372       27.44609456        0.92337763
       64.26341       29.51435103        1.00420865
       64.36311       29.29614077        1.02101780
       64.46280       29.68501374        1.08514691
       64.56249       29.80934855        1.10417210
       64.66219       28.47342202        0.94268901
       64.76188       30.42268377        0.95999072
       64.86157       30.21693113        0.95170356
       64.96127       29.11799458        0.98292226
       65.06096       30.23001058        1.08763165
       65.16065       31.03526616        0.99957580
       65.26035       30.74063196        1.01498418
       65.36004       30.22461550        1.04718714
       65.45974       29.12660703        1.06069974
       65.55943       31.58207912        1.15395937
       65.65912       32.39795726        1.01203856
       65.75882       33.66830584        1.02209048
       65.85851       33.22400041        1.01621925
       65.95820       35.27981721        1.10325146
       66.05790       37.50000729        1.17601859
       66.15759       38.12699141        1.12634169
       66.25728       38.14081527        1.15922003
       66.35698       41.34262020        1.25345432
       66.45667       48.03014291        1.43309120
       66.55636       52.12772970        1.48640446
       66.65606       56.42513544        1.37377801
       66.75575       79.94804493        1.60971486
       66.85544      112.94675897        1.90067857
       66.95514      173.24734501        2.45108643
       67.05483      247.30065199        2.95092011
       67.15452      371.46765622        3.44999300
       67.25422      506.59087418        4.23447337
       67.35391      635.47222242        4.98047586
       67.45360      722.49364444        5.64434111
       67.55330      790.65378494        5.71402617
       67.65299      852.26918006        5.36688007
       67.75268      868.18017996        5.35266108
       67.85238      809.96550324        5.21065659
       67.95207      711.91069988        5.19726098
       68.05176      589.80943332        4.45408083
       68.15146      405.35695247        3.61930436
       68.25115      265.96577669        3.09701146
       68.35084      183.55801288        2.69422969
       68.45054      133.26758836        2.53695907
       68.55023       98.15104987        1.87352368
       68.64992       69.91484148        1.46569980
       68.74962       55.23211327        1.31355748
       68.84931       43.80162841        1.18518558
       68.94900       41.02679124        1.29644207
       69.04870       37.61380880        1.04393038
       69.14839       35.17944142        1.04677129
       69.24808       33.87745553        1.10772147
       69.34778       35.31343650        1.16609433
       69.44747       33.18049857        1.30570748
       69.54716       32.42048045        1.00583219
       69.64686       31.53519599        0.97624058
       69.74655       31.49399264        0.98069717
       69.84625       28.91394913        0.96169006
       69.94594       30.19511068        1.10927010
       70.04563       30.59396522        0.92674243
       70.14533       29.00084847        0.94163098
       70.24502       27.68657016        0.98252871
       70.34471       29.86846598        1.07876570
       70.44441       31.71092111        1.30558250
       70.54410       30.28899806        0.99757990
       70.64379       33.51606200        1.04290486
       70.74349       34.73650503        1.07741686
       70.84318       33.43417566        1.10688284
       70.94287       38.01768709        1.30315936
       71.04257       35.05942166        1.03277254
       71.14226       35.72036259        1.07991468
       71.24195       33.95010453        1.10559484
       71.34165       36.21562194        1.20556953
       71.44134       35.70559349        1.33247433
       71.54103       30.91652734        1.00881392
       71.64073       31.50142857        0.99898562
       71.74042       29.71596072        0.95968667
       71.84011       28.50488374        0.97469468
       71.93981       27.80176717        1.04689850
       72.03950       26.95535536        0.86917012
       72.13919       27.32040419        0.91171774
       72.23889       24.97093009        0.90569478
       72.33858       26.39446197        1.03761928
       72.43827       26.47050353        1.14226450
       72.53797       25.30210784        0.90969181
       72.63766       25.90290970        0.90324626
       72.73735       24.41891393        0.85504361
       72.83705       24.68407622        0.90552595
       72.93674       26.23561689        0.99062544
       73.03643       25.14013103        0.83835299
       73.13613       24.47646122        0.86858911
       73.23582       27.08108969        0.96327171
       73.33551       24.65155904        1.01816716
       73.43521       27.61424944        1.17043444
       73.53490       25.06491757        0.89891849
       73.63459       24.77898926        0.87898123
       73.73429       24.23257404        0.86248208
       73.83398       27.29402902        0.96913864
       73.93367       26.90822784        1.01148614
       74.03337       24.87518088        0.85674462
       74.13306       27.05607524        0.94125404
       74.23275       26.99138706        0.98293151
       74.33245       27.44239267        1.08938695
       74.43214       24.24660427        1.05763078
       74.53184       25.32313488        0.91742731
       74.63153       26.17972891        0.92563883
       74.73122       24.03501185        0.88027398
       74.83092       25.37323835        0.95622795
       74.93061       24.10948612        0.94378100
       75.03030       24.78859345        0.86306630
       75.13000       23.66083026        0.87200328
       75.22969       26.79325775        0.96718677
       75.32938       23.26170816        0.98707336
       75.42908       24.05218493        1.01652290
       75.52877       22.81907337        0.85868568
       75.62846       23.56351284        0.86675965
       75.72816       23.39561007        0.86406347
       75.82785       23.76391640        0.94345470
       75.92754       24.77572293        0.91092663
       76.02724       24.13175144        0.83868747
       76.12693       24.34162314        0.87620337
       76.22662       24.29712701        0.92365535
       76.32632       22.22524027        0.99741921
       76.42601       24.60898466        0.98225861
       76.52570       23.14653161        0.87598042
       76.62540       25.01751645        0.90983227
       76.72509       24.61690174        0.89484640
       76.82478       21.49399393        0.96477400
       76.92448       21.85394935        0.77310559
       77.02417       23.11571167        0.82238035
       77.12386       22.68835559        0.85414150
       77.22356       22.21664204        0.89654797
       77.32325       21.93971773        1.08941987
       77.42294       24.11742590        0.91439662
       77.52264       24.25936929        0.90001281
       77.62233       23.61483892        0.88353290
       77.72202       21.82247524        0.84732111
       77.82172       21.69286335        0.98695598
       77.92141       23.01150240        0.77931139
       78.02110       22.28102694        0.82550881
       78.12080       23.91358151        0.90717268
       78.22049       22.77055552        0.94142913
       78.32018       23.64532731        1.11737101
       78.41988       23.04478143        0.87189921
       78.51957       22.37107379        0.88504678
       78.61926       23.82192767        0.90712834
       78.71896       22.68987162        0.88690593
       78.81865       22.62773880        0.98685851
       78.91834       23.25592231        0.77144875
       79.01804       23.38981722        0.85182135
       79.11773       21.77649120        0.86117749
       79.21743       21.19315409        0.90812594
       79.31712       21.69485094        1.03461064
       79.41681       21.44967079        0.82955434
       79.51651       22.93111272        0.87297835
       79.61620       21.96385616        0.85506352
       79.71589       21.92512517        0.88493233
       79.81559       22.38939331        0.94496293
       79.91528       23.31328408        0.81937755
       80.01497       23.28261951        0.85313712
       80.11467       21.72689768        0.85838990
       80.21436       25.38054034        0.99009454
       80.31405       21.26716706        1.07582876
       80.41375       23.37091049        0.86303278
       80.51344       23.06070471        0.85321183
       80.61313       22.14368569        0.85853618
       80.71283       23.62549956        0.92166363
       80.81252       23.21952984        1.02960366
       80.91221       23.20364584        0.76795926
       81.01191       23.85684266        0.83467408
       81.11160       23.26675797        0.88792291
       81.21129       21.59844148        0.92381890
       81.31099       22.55014771        1.05135661
       81.41068       22.40141216        0.81603362
       81.51037       22.22874518        0.83384772
       81.61007       23.15517994        0.89897910
       81.70976       22.98028618        0.92823702
       81.80945       23.26300059        0.99329826
       81.90915       21.44730799        0.72649622
       82.00884       22.57969357        0.79784360
       82.10853       22.00052195        0.87746770
       82.20823       23.04597999        0.99347976
       82.30792       22.57050358        1.02799680
       82.40761       22.55545363        0.83983737
       82.50731       22.67784260        0.85198761
       82.60700       23.79454650        0.93464559
       82.70669       23.33741798        1.00794592
       82.80639       21.51802902        0.92234145
       82.90608       22.69847487        0.76771674
       83.00577       21.99714884        0.79939340
       83.10547       24.95915384        1.00005946
       83.20516       23.34236502        1.08348816
       83.30485       22.35582491        1.01315606
       83.40455       22.70877381        0.85212922
       83.50424       24.32367586        0.85608376
       83.60393       24.38660939        0.94379918
       83.70363       26.69559610        1.11001625
       83.80332       25.35902171        0.94664865
       83.90302       26.70894975        0.81209769
       84.00271       25.97990498        0.83360558
       84.10240       26.72625762        1.02354899
       84.20210       25.54085369        1.21537255
       84.30179       26.95148221        1.01544768
       84.40148       27.30489038        0.89772704
       84.50118       26.51226309        0.86871600
       84.60087       27.49080831        0.99702205
       84.70056       26.04567284        1.26213747
       84.80026       26.44929518        0.88863121
       84.89995       26.07211878        0.79638417
       84.99964       26.38686344        0.83397143
       85.09934       24.33015014        0.94361580
       85.19903       21.42884510        1.51624043
       85.29872       21.97298635        0.80780747
       85.39842       22.14513558        0.82425581
       85.49811       20.89426742        0.77780302
       85.59780       21.81872545        0.89039071
       85.69750       18.96146125        1.49288928
       85.79719       21.38210631        0.75720046
       85.89688       22.21665724        0.75384624
       85.99658       20.25205987        0.73672362
       86.09627       23.38227466        0.90729945
       86.19596       20.26606437        1.62979544
       86.29566       21.71449039        0.79413141
       86.39535       21.77965513        0.80374354
       86.49504       19.29544463        0.74448688
       86.59474       21.84576639        0.85644843
       86.69443       22.63624936        1.82659043
       86.79412       22.18501073        0.75264786
       86.89382       21.16645208        0.71603303
       86.99351       22.19434638        0.76131394
       87.09320       21.91171040        0.83885926
       87.19290       22.63919296        2.02290454
       87.29259       21.20114227        0.78809185
       87.39228       20.93168988        0.80205053
       87.49198       21.13922439        0.78972678
       87.59167       22.72425530        0.82875620
       87.69136       22.52425933        2.46804001
       87.79106       22.36143930        0.76259433
       87.89075       21.53320927        0.74229192
       87.99044       21.65846342        0.77056493
       88.09014       22.33793108        0.83113899
       88.18983       19.84562345        4.16892702
       88.28952       22.44683819        0.84870701
       88.38922       22.11528149        0.85054719
       88.48891       21.70563298        0.80463641
       88.58861       21.00465434        0.76404668
       88.68830       25.47922698        6.59479180
       88.78799       22.67990708        0.76605084
       88.88769       20.71494602        0.71141847
       88.98738       22.23695407        0.76945480
       89.08707       22.64993973        0.80374081
       89.18677       22.29042743        6.49704322
       89.28646       21.38291711        0.79118664
       89.38615       21.62871056        0.79859050
       89.48585       22.67630923        0.80226674
       89.58554       21.70054614        0.76566884
       89.68523       26.30218462        6.81404792
       89.78493       22.61740846        0.75499240
       89.88462       21.91150185        0.73663385
       89.98431       22.28219008        0.76667427
       90.08401       22.60180854        0.79428248
       90.18370       25.08762696        6.92756537
       90.28339       22.51956412        0.80868282
       90.38309       22.78535607        0.82603768
       90.48278       22.45776551        0.80170168
       90.58247       21.52814517        0.77225731
       90.68217       19.01229486        5.72894908
       90.78186       21.92484925        0.75594235
       90.88155       22.95993653        0.75432269
       90.98125       22.40674028        0.76590691
       91.08094       23.86845833        0.81583175
       91.18063       27.77398935        7.01699983
       91.28033       22.13764416        0.80729460
       91.38002       22.55079692        0.83230166
       91.47971       22.45258450        0.81041028
       91.57941       24.46522962        0.83026217
       91.67910       24.97339595        6.35487410
       91.77879       25.66435102        0.81450514
       91.87849       23.03798717        0.75564659
       91.97818       26.20436001        0.83689280
       92.07787       26.51567615        0.87325322
       92.17757       23.64823321        6.26179509
       92.27726       30.97096634        0.97209447
       92.37695       34.75190247        1.06315970
       92.47665       40.40011662        1.10152767
       92.57634       46.84166022        1.14141570
       92.67603       48.85122290        7.61673788
       92.77573       54.33706755        1.18424061
       92.87542       75.63031048        1.36860601
       92.97511      102.62500584        1.66058508
       93.07481      144.49138143        2.24910183
       93.17450      148.89393256        4.30679273
       93.27420      198.16573317        2.46016052
       93.37389      239.76845962        2.63606555
       93.47358      280.83384624        2.87218972
       93.57328      309.80605794        3.49495342
       93.67297      316.05158466        4.76067849
       93.77266      333.95540693        3.03307176
       93.87236      349.20527264        2.94518115
       93.97205      364.88927705        3.17154395
       94.07174      379.84181164        4.23594495
       94.17144      372.16764286        4.78952689
       94.27113      373.99432327        3.55146613
       94.37082      357.45324011        3.36249705
       94.47052      336.29265733        3.12993087
       94.57021      297.98086702        3.88111607
       94.66990      285.90154362        3.83441273
       94.76960      239.31089927        2.71008561
       94.86929      175.70040499        2.12890667
       94.96898      119.28625731        1.77691944
       95.06868       89.96106875        1.76886535
       95.16837       78.55975337        2.25552205
       95.26806       64.58424632        1.57871024
       95.36776       55.94015059        1.33092401
       95.46745       47.82448185        1.18141024
       95.56714       40.55954537        1.24722709
       95.66684       36.71411016        1.34246580
       95.76653       33.68628486        1.06857880
       95.86622       29.58340305        0.85239071
       95.96592       28.82631101        0.86751570
       96.06561       27.91624206        1.09369835
       96.16530       30.38397228        1.21127536
       96.26500       29.59057120        1.07427603
       96.36469       33.00481572        1.01199408
       96.46438       32.30019284        0.97395396
       96.56408       32.84165268        1.22651686
       96.66377       34.72659761        1.22514556
       96.76346       34.84089921        1.09327078
       96.86316       35.50982051        0.95238372
       96.96285       35.98303159        0.98903025
       97.06254       33.49120769        1.28580095
       97.16224       37.16518115        1.29639232
       97.26193       37.87362807        1.22392368
       97.36162       37.55547777        1.14054503
       97.46132       38.57224619        1.07379849
       97.56101       36.70944293        1.32281379
       97.66071       34.28393243        1.14378129
       97.76040       36.07548274        1.06657878
       97.86009       34.18555141        0.93574663
       97.95979       30.50780228        0.89827546
       98.05948       28.61573988        1.21658683
       98.15917       28.28478981        1.08015877
       98.25887       28.79326038        1.04722445
       98.35856       26.16403070        0.93825705
       98.45825       23.74428126        0.83093303
       98.55795       24.12411944        1.09281896
       98.65764       23.04173961        0.91515129
       98.75733       23.65721421        0.86221268
       98.85703       22.86066143        0.79005575
       98.95672       22.57988865        0.78807975
       99.05641       22.61230806        1.09972706
       99.15611       22.34229734        0.93765817
       99.25580       21.88612413        0.89503340
       99.35549       21.63400567        0.84552246
       99.45519       21.27456061        0.78064846
       99.55488       22.26860668        1.06609700
       99.65457       21.43994769        0.86154613
       99.75427       22.14129455        0.81989069
       99.85396       23.15671382        0.80784985
       99.95365       23.17929830        0.79221641
      100.05335       21.50641998        1.08154138
      100.15304       21.22032668        0.90226497
      100.25273       22.35389504        0.91528918
      100.35243       21.41727166        0.88926642
      100.45212       21.17835117        0.80657486
      100.55181       21.52890142        1.07043627
      100.65151       22.86434760        0.90215787
      100.75120       22.77389536        0.83826190
      100.85089       21.10951709        0.76953072
      100.95059       22.93140338        0.77915256
      101.05028       24.93460158        1.15911669
      101.14997       20.91388070        0.87451902
      101.24967       21.33534063        0.87036341
      101.34936       20.26320779        0.85185378
      101.44905       21.67407167        0.83562836
      101.54875       23.45494350        1.09244006
      101.64844       21.89662822        0.85874596
      101.74813       21.81399997        0.80383538
      101.84783       21.86210507        0.77997890
      101.94752       22.27906241        0.82948117
      102.04721       20.06872575        0.94598473
      102.14691       22.57218373        0.90319604
      102.24660       20.72810860        0.85834047
      102.34630       22.71459614        0.90538970
      102.44599       21.91747379        0.90228196
      102.54568       19.70216750        0.89540919
      102.64538       21.07876064        0.82579413
      102.74507       22.34037937        0.80749838
      102.84476       21.16455572        0.76985847
      102.94446       20.03110082        0.84940951
      103.04415       20.27331666        0.91275386
      103.14384       20.79824112        0.86635776
      103.24354       20.59177105        0.85009887
      103.34323       20.80775874        0.84607356
      103.44292       19.80178565        0.89305605
      103.54262       21.62143752        0.90584195
      103.64231       21.65852813        0.82311389
      103.74200       21.37568805        0.77858465
      103.84170       20.92548166        0.75528758
      103.94139       19.66096484        0.88912287
      104.04108       19.79479647        0.86403002
      104.14078       20.70738978        0.85602276
      104.24047       19.70581280        0.83287079
      104.34016       21.03311374        0.86419032
      104.43986       19.67848696        0.95190455
      104.53955       21.15794843        0.88993476
      104.63924       20.51672976        0.82175208
      104.73894       21.31677910        0.80503578
      104.83863       20.73378955        0.77065614
      104.93832       21.17453766        0.94308997
      105.03802       20.43719878        0.86962938
      105.13771       21.16218799        0.85143560
      105.23740       20.87250160        0.84234034
      105.33710       20.70091943        0.84072615
      105.43679       19.69568441        0.95464843
      105.53648       20.54892784        0.87727000
      105.63618       22.02611566        0.83546640
      105.73587       20.93761662        0.77920806
      105.83556       21.21228450        0.76257678
      105.93526       19.74243392        0.93048971
      106.03495       20.88626386        0.86675534
      106.13464       19.78495547        0.81415286
      106.23434       21.04014009        0.84452546
      106.33403       22.65408651        0.88584292
      106.43372       20.83291658        1.01596701
      106.53342       21.05787602        0.88984731
      106.63311       19.40204685        0.77658589
      106.73280       21.09051505        0.76902046
      106.83250       20.85680012        0.75154363
      106.93219       19.92323024        0.95053136
      107.03189       20.74189063        0.85948100
      107.13158       19.66038165        0.81042883
      107.23127       22.46918481        0.88258939
      107.33097       19.57931960        0.82417401
      107.43066       22.20997921        1.05765857
      107.53035       22.53364416        0.91566910
      107.63005       20.59690002        0.79652421
      107.72974       19.72854175        0.74686997
      107.82943       20.20457206        0.74518733
      107.92913       20.42270487        0.99033106
      108.02882       20.59177591        0.87178439
      108.12851       21.13235241        0.84422836
      108.22821       20.85345559        0.82677600
      108.32790       20.90592024        0.81715918
      108.42759       21.16321184        1.04250164
      108.52729       22.00435621        0.90137223
      108.62698       20.41233405        0.78477239
      108.72667       21.63466224        0.77442895
      108.82637       23.39751990        0.82517874
      108.92606       22.14612901        1.02190054
      109.02575       23.70683221        0.92503695
      109.12545       22.77406368        0.88292465
      109.22514       23.89188686        0.90199781
      109.32483       24.77858293        0.99896069
      109.42453       23.14637888        1.01776816
      109.52422       27.25652308        0.99647940
      109.62391       25.48200952        0.91529991
      109.72361       25.96833863        0.88476403
      109.82330       28.46050064        0.87153515
      109.92299       28.92963685        1.14274190
      110.02269       27.77722189        0.97631268
      110.12238       29.61336843        1.00073586
      110.22207       28.60239516        0.97499284
      110.32177       29.95738623        1.01722953
      110.42146       27.52666499        1.18162130
      110.52115       29.62727965        1.04308572
      110.62085       30.13577229        0.99559165
      110.72054       30.01325344        0.93286487
      110.82023       30.49935553        0.96789247
      110.91993       29.40143954        1.10402248
      111.01962       31.50587526        1.05599864
      111.11931       28.48951369        1.00876184
      111.21901       27.49130082        0.97108061
      111.31870       28.82125485        1.07692183
      111.41839       26.98703432        1.08482320
      111.51809       27.60114433        1.00091375
      111.61778       25.13846508        0.89932200
      111.71748       24.40394311        0.82124418
      111.81717       22.49593309        0.85336661
      111.91686       22.95236790        0.90601758
      112.01656       22.03701568        0.86676060
      112.11625       23.18571395        0.89460963
      112.21594       23.37076388        0.89634976
      112.31564       24.01860431        1.00723822
      112.41533       20.95549879        0.92368474
      112.51502       20.74533372        0.84486134
      112.61472       21.24065386        0.81459643
      112.71441       20.78342363        0.75878750
      112.81410       20.45785973        0.84155036
      112.91380       21.35560000        0.87487243
      113.01349       19.94244851        0.82927654
      113.11318       20.63964803        0.84429514
      113.21288       21.56462037        0.86164673
      113.31257       19.31390950        0.90101614
      113.41226       19.70747610        0.86318541
      113.51196       20.00083073        0.81759057
      113.61165       20.11573305        0.79132377
      113.71134       21.08713843        0.77163455
      113.81104       21.03705082        0.88310590
      113.91073       21.11361890        0.86250622
      114.01042       19.57354192        0.82340569
      114.11012       22.07339896        0.87303131
      114.20981       21.34858568        0.86221841
      114.30950       21.08291875        0.97090016
      114.40920       20.97964321        0.89405667
      114.50889       20.06717309        0.81849005
      114.60858       20.66056175        0.80542964
      114.70828       20.68495002        0.77867189
      114.80797       20.54980723        0.88458133
      114.90766       20.77639395        0.83714708
      115.00736       19.73063485        0.81027634
      115.10705       21.86111705        0.85567929
      115.20674       22.24177376        0.87658511
      115.30644       21.88710815        0.99607265
      115.40613       19.31532249        0.84855707
      115.50582       19.80504964        0.81296659
      115.60552       20.46606335        0.80019062
      115.70521       21.21792233        0.78434368
      115.80490       22.79306689        0.94597691
      115.90460       20.93473169        0.82004075
      116.00429       21.41478580        0.83916519
      116.10398       20.92405224        0.83480214
      116.20368       19.98837422        0.83399194
      116.30337       21.42862839        1.03155797
      116.40307       22.27275214        0.91940211
      116.50276       19.82946193        0.82169142
      116.60245       22.04573883        0.83297829
      116.70215       21.64411505        0.79526323
      116.80184       21.18206463        0.93327919
      116.90153       21.64038646        0.84912756
      117.00123       21.97550860        0.84809243
      117.10092       21.26733739        0.85620359
      117.20061       20.52905933        0.85399122
      117.30031       21.39293701        1.04822579
      117.40000       21.50982914        0.88048533
      117.49969       21.07748797        0.82729874
      117.59939       22.24067870        0.81093920
      117.69908       22.21229501        0.78453002
      117.79877       23.46238110        0.98877982
      117.89847       21.64106271        0.82449445
      117.99816       21.44961686        0.83278610
      118.09785       25.00025620        0.92101573
      118.19755       25.49726021        0.97167156
      118.29724       25.53765482        1.05986053
      118.39693       27.90440481        1.01066742
      118.49663       30.02587715        0.98608851
      118.59632       29.38425635        0.93874117
      118.69601       33.38716454        1.04586256
      118.79571       36.57571614        1.18430368
      118.89540       38.30987059        1.13299522
      118.99509       42.40134211        1.19225229
      119.09479       46.57088414        1.25922569
      119.19448       47.77655236        1.38893492
      119.29417       55.59961386        1.55831285
      119.39387       65.81274085        1.56086618
      119.49356       72.79861246        1.54416120
      119.59325       87.11149840        1.64416103
      119.69295      105.66169031        1.91649909
      119.79264      119.99235659        2.06923332
      119.89233      142.33088884        2.18516982
      119.99203      157.45280861        2.24476935
      120.09172      171.77749615        2.39285966
      120.19141      191.15491465        2.83356832
      120.29111      201.47394448        2.87474403
      120.39080      206.84852024        2.78282154
      120.49049      220.05398706        2.67848722
      120.59019      230.42590969        2.66383057
      120.68988      238.46299031        2.92082899
      120.78957      242.67781298        2.87733542
      120.88927      243.49074964        2.83409258
      120.98896      253.34758175        2.86140747
      121.08866      253.01942609        2.87150124
      121.18835      259.58415581        3.34229763
      121.28804      268.64132765        3.31499744
      121.38774      270.72624708        3.15658203
      121.48743      277.49155474        3.02623730
      121.58712      274.10006577        2.86688746
      121.68682      271.41241449        3.14169036
      121.78651      267.23742279        2.97428210
      121.88620      257.86927553        2.88457041
      121.98590      255.25108408        2.88751493
      122.08559      244.32007032        2.87910214
      122.18528      240.83954287        3.33731448
      122.28498      227.20137424        3.04260012
      122.38467      207.51645710        2.77985929
      122.48436      181.24831586        2.45429511
      122.58406      160.05248242        2.18072619
      122.68375      140.36781101        2.31119860
      122.78344      117.06686774        1.98023765
      122.88314      100.85468344        1.82425406
      122.98283       84.37405341        1.70381904
      123.08252       77.65731328        1.62866881
      123.18222       68.59928986        1.78211236
      123.28191       62.02343018        1.53523897
      123.38160       53.63366933        1.37793672
      123.48130       50.58685309        1.28804105
      123.58099       44.40258563        1.12691801
      123.68068       41.23696242        1.23876037
      123.78038       37.80261262        1.07082019
      123.88007       35.20994078        1.01458983
      123.97976       32.97997286        0.99778867
      124.07946       28.72429917        0.92039565
      124.17915       26.89816124        1.00281665
      124.27884       24.82034118        0.86239431
      124.37854       22.64638283        0.77479021
      124.47823       24.03680129        0.78127652
      124.57792       22.67101978        0.80848020
