        5.04553       63.91622824        3.00738682
        5.14523       64.83785579        2.89827864
        5.24492       62.46602739        2.80533391
        5.34461       61.01647675        2.55233340
        5.44431       60.94096612        2.78990154
        5.54400       64.10770241        2.38535448
        5.64369       57.69249941        2.27349430
        5.74339       62.74507999        2.12545335
        5.84308       60.88703466        2.11897075
        5.94277       61.83200098        2.12990547
        6.04247       60.34006346        2.04083661
        6.14216       62.61512600        1.91398765
        6.24185       61.36775684        1.95253133
        6.34155       63.24376538        1.89127963
        6.44124       61.70328186        1.96925926
        6.54093       61.13651933        1.85856480
        6.64063       57.72925701        1.71163417
        6.74032       58.60303866        1.72462894
        6.84001       59.29642007        1.72498424
        6.93971       61.55172978        1.77285296
        7.03940       59.98178831        1.63020960
        7.13909       62.43340638        1.65594113
        7.23879       61.84806652        1.62482464
        7.33848       63.89465266        1.67709438
        7.43817       66.64888556        1.67687987
        7.53787       62.72137299        1.60545071
        7.63756       62.23043217        1.52510598
        7.73725       62.87245820        1.59387384
        7.83695       64.40412864        1.56072113
        7.93664       62.92354176        1.60924361
        8.03633       63.50154987        1.45562002
        8.13603       63.24974757        1.43575377
        8.23572       69.26531414        1.53236747
        8.33541       62.22179263        1.43755516
        8.43511       64.02825792        1.54305618
        8.53480       65.37037224        1.44475463
        8.63449       63.28344571        1.40825902
        8.73419       63.86703794        1.38126332
        8.83388       66.19537498        1.41426650
        8.93357       66.72252292        1.41674942
        9.03327       65.11919070        1.36303162
        9.13296       64.75088924        1.35212851
        9.23265       67.04561436        1.39305224
        9.33235       68.00692620        1.44425688
        9.43204       71.28690111        1.47311784
        9.53174       68.33148504        1.38577038
        9.63143       68.77881598        1.43694794
        9.73112       69.06239514        1.44010723
        9.83082       72.34624885        1.53810757
        9.93051       70.58978491        1.49662146
       10.03020       68.27364978        1.42263836
       10.12990       73.51092425        1.44116978
       10.22959       74.23813870        1.50710916
       10.32928       73.86453929        1.56616174
       10.42898       74.70005016        1.55474227
       10.52867       73.17424838        1.48823091
       10.62836       74.89092232        1.50533964
       10.72806       76.43380425        1.53976811
       10.82775       76.89189673        1.54057879
       10.92744       76.17052834        1.55608576
       11.02714       79.39292348        1.51764118
       11.12683       77.62224454        1.55097794
       11.22652       77.50605204        1.56796626
       11.32622       80.92822618        1.64471502
       11.42591       80.73608259        1.58514874
       11.52560       81.63987167        1.57611901
       11.62530       85.96556779        1.63199482
       11.72499       86.31296164        1.66488069
       11.82468       85.71729560        1.70393372
       11.92438       86.34056721        1.62495636
       12.02407       86.08534927        1.60434303
       12.12376       90.16972419        1.65208453
       12.22346       89.65280158        1.74794398
       12.32315       87.90174141        1.74755220
       12.42284       92.07153144        1.70553538
       12.52254       93.02818653        1.70082219
       12.62223       91.50743305        1.73349945
       12.72192       95.95015150        1.72483733
       12.82162       94.35453022        1.84763639
       12.92131       97.09030246        1.72082055
       13.02100       95.52432498        1.68675653
       13.12070       99.45834168        1.74976932
       13.22039       96.74321448        1.77605009
       13.32008      100.59143349        1.88017844
       13.41978      100.00353599        1.78206827
       13.51947      101.57860780        1.82948499
       13.61916      103.01854395        1.77892311
       13.71886      106.98894923        1.90138046
       13.81855      105.05826051        1.91243004
       13.91824      108.37653340        1.82828875
       14.01794      110.47984887        1.80587878
       14.11763      113.00591602        1.89167617
       14.21733      110.03449527        1.87564782
       14.31702      111.70818466        1.98502519
       14.41671      119.34266082        1.99052100
       14.51641      113.45480137        1.88695819
       14.61610      117.00244817        1.92592952
       14.71579      120.87940509        1.99359539
       14.81549      121.93932760        2.10032546
       14.91518      118.02330051        1.88900967
       15.01487      121.85345279        1.95442571
       15.11457      124.70960864        2.00100582
       15.21426      123.89795360        2.05479844
       15.31395      127.17519506        2.13669047
       15.41365      127.57641047        2.07078276
       15.51334      129.54759029        2.02392169
       15.61303      129.53240900        2.08386102
       15.71273      128.52596886        2.03903687
       15.81242      130.67949752        2.15613831
       15.91211      132.45217800        2.09406131
       16.01181      129.78427572        1.99199431
       16.11150      134.02442892        2.08538129
       16.21119      131.33555188        2.12341440
       16.31089      137.52211167        2.17650380
       16.41058      135.73620608        2.11766440
       16.51027      136.22820604        2.15929652
       16.60997      133.14382341        2.05915863
       16.70966      134.50552740        2.12057463
       16.80935      135.72517349        2.15581611
       16.90905      134.21426569        2.07934825
       17.00874      131.37046372        1.97051336
       17.10843      130.65314707        2.08283661
       17.20813      129.36482365        2.08728163
       17.30782      130.79201013        2.11595139
       17.40751      130.81591387        2.11456798
       17.50721      127.96432081        2.02575049
       17.60690      122.82033145        2.05006065
       17.70659      123.25267087        2.06335839
       17.80629      125.10804656        2.10363465
       17.90598      119.89538183        1.92643937
       18.00567      122.50120291        1.98266095
       18.10537      117.75146333        1.89082690
       18.20506      116.10300693        2.05666083
       18.30475      115.55947025        1.95723529
       18.40445      115.57843516        1.90468828
       18.50414      111.98624961        1.93605854
       18.60383      112.33405332        1.90815217
       18.70353      112.06547809        2.01615732
       18.80322      113.61903501        1.91006681
       18.90292      109.60505199        1.85696381
       19.00261      105.46861300        1.76597057
       19.10230      102.69716234        1.85708445
       19.20200      102.30068810        1.89671641
       19.30169      104.66690593        1.84984729
       19.40138      101.02078204        1.80047928
       19.50108       97.07942885        1.80495067
       19.60077       97.91201988        1.79466327
       19.70046       94.99822943        1.85251218
       19.80016       96.48745957        1.76802122
       19.89985       96.16956853        1.71349130
       19.99954       91.34751102        1.68634553
       20.09924       91.89479992        1.71215426
       20.19893       89.24668480        1.80362763
       20.29862       90.04064333        1.71609499
       20.39832       88.27698045        1.75343805
       20.49801       89.88887083        1.73569422
       20.59770       86.42101158        1.73640837
       20.69740       85.92120344        1.79274533
       20.79709       84.32912574        1.69120999
       20.89678       83.36695078        1.63902892
       20.99648       86.36261822        1.69574101
       21.09617       80.49457526        1.70889776
       21.19586       81.60147950        1.71987793
       21.29556       80.48547022        1.66903108
       21.39525       78.63755384        1.65213799
       21.49494       79.02798685        1.62731569
       21.59464       80.25141565        1.67555940
       21.69433       76.79097418        1.70639098
       21.79402       75.60128689        1.54561843
       21.89372       76.65036845        1.52476208
       21.99341       75.96985624        1.58227920
       22.09310       78.06604679        1.61093134
       22.19280       76.56202850        1.69175470
       22.29249       75.11636106        1.56362045
       22.39218       71.83372276        1.56244894
       22.49188       69.13018349        1.53444793
       22.59157       73.85621504        1.60686317
       22.69126       70.22135046        1.64631565
       22.79096       72.08538802        1.50716412
       22.89065       71.72358697        1.46894435
       22.99034       70.52283989        1.49663304
       23.09004       71.38218714        1.57266418
       23.18973       70.29270647        1.55780896
       23.28942       67.24381205        1.50113032
       23.38912       66.53759200        1.50822267
       23.48881       70.11856002        1.55629556
       23.58851       68.49383506        1.55762159
       23.68820       68.64458533        1.64211339
       23.78789       69.24652902        1.46852110
       23.88759       68.39590316        1.48024902
       23.98728       68.86915514        1.51581543
       24.08697       69.00931781        1.48782866
       24.18667       68.51206641        1.58981222
       24.28636       66.54940612        1.48623728
       24.38605       64.66345942        1.49676502
       24.48575       67.33765905        1.52524511
       24.58544       64.62241567        1.53945898
       24.68513       68.55697656        1.58624425
       24.78483       65.62627720        1.43011806
       24.88452       66.40328903        1.43516094
       24.98421       65.50433306        1.47430129
       25.08391       66.43629794        1.51567099
       25.18360       64.74453823        1.52846993
       25.28329       66.68533559        1.49539012
       25.38299       63.79561521        1.45804158
       25.48268       66.95656368        1.50277529
       25.58237       62.27719808        1.50766994
       25.68207       67.06058938        1.53327269
       25.78176       64.93040792        1.41805678
       25.88145       65.47178921        1.46192368
       25.98115       63.85322086        1.45914775
       26.08084       62.53639988        1.47963746
       26.18053       64.25060096        1.54096945
       26.28023       66.66816361        1.48562291
       26.37992       63.69002482        1.45285524
       26.47961       63.07465511        1.49328729
       26.57931       65.84625045        1.59235825
       26.67900       66.25741363        1.49480018
       26.77869       67.13050162        1.49399532
       26.87839       63.59349466        1.43823557
       26.97808       64.32726794        1.43730249
       27.07777       67.76062192        1.58950365
       27.17747       63.09160417        1.46400882
       27.27716       64.77017127        1.44598015
       27.37685       61.53462165        1.46432828
       27.47655       63.20760168        1.46108762
       27.57624       67.29840706        1.57532796
       27.67593       65.12015762        1.51747366
       27.77563       65.38135069        1.45572198
       27.87532       66.29242180        1.44148946
       27.97501       61.03619642        1.41065104
       28.07471       65.44043146        1.54825323
       28.17440       63.59764495        1.45982270
       28.27410       65.06825678        1.47358640
       28.37379       67.44951359        1.53647844
       28.47348       62.48152940        1.46892032
       28.57318       67.84894183        1.65854507
       28.67287       65.35494867        1.45116592
       28.77256       66.66463398        1.43876344
       28.87226       66.33673541        1.47048736
       28.97195       65.93883424        1.47159845
       29.07164       64.46639079        1.58377707
       29.17134       68.06089212        1.48268224
       29.27103       64.97593622        1.47190247
       29.37072       66.43607896        1.54972377
       29.47042       61.47671704        1.46902088
       29.57011       67.37766565        1.62787764
       29.66980       68.08643278        1.49221567
       29.76950       68.30293431        1.49377675
       29.86919       67.75478396        1.45797033
       29.96888       66.49977251        1.51036280
       30.06858       67.83559657        1.57514569
       30.16827       69.11824757        1.50422695
       30.26796       65.89327906        1.47017356
       30.36766       69.29362924        1.53856963
       30.46735       67.00882507        1.52588379
       30.56704       64.95209480        1.58055836
       30.66674       67.92364151        1.50901354
       30.76643       68.75700642        1.48237912
       30.86612       71.48336643        1.54284495
       30.96582       69.65869699        1.53397199
       31.06551       71.39006344        1.62866533
       31.16520       69.49670478        1.51065722
       31.26490       69.92022715        1.50317903
       31.36459       70.03190273        1.52568263
       31.46428       71.25562609        1.60393035
       31.56398       67.38989123        1.57736270
       31.66367       69.48327711        1.49718837
       31.76336       69.24943801        1.49532895
       31.86306       72.59282138        1.51556112
       31.96275       70.66976813        1.52759596
       32.06244       73.47145503        1.61173917
       32.16214       75.19837033        1.53173738
       32.26183       74.59527796        1.56307537
       32.36152       78.63128151        1.66390706
       32.46122       76.52544435        1.66551015
       32.56091       80.69043157        1.74405604
       32.66060       83.53568733        1.68903426
       32.76030       88.96933719        1.70729339
       32.85999       99.68982967        1.83617775
       32.95969      110.94921300        1.95748485
       33.05938      141.17618069        2.24919951
       33.15907      191.89006743        2.47719274
       33.25877      277.93619753        3.07915564
       33.35846      434.03518055        3.88878309
       33.45815      642.72664531        4.95712531
       33.55785      867.14324988        5.81959327
       33.65754     1159.68764449        6.34667000
       33.75723     1409.00904703        7.06377469
       33.85693     1358.36951812        6.94612241
       33.95662     1142.01157825        6.49873144
       34.05631      841.64441653        5.47613797
       34.15601      508.17512344        4.12226968
       34.25570      299.11505595        3.14300363
       34.35539      194.67447971        2.58933236
       34.45509      132.16357541        2.25056882
       34.55478      100.68497437        1.84913456
       34.65447       87.37130433        1.65665009
       34.75417       79.89934113        1.61119322
       34.85386       78.56316012        1.57874889
       34.95355       75.16545345        1.59410368
       35.05325       70.70537324        1.59869334
       35.15294       69.51692336        1.49573760
       35.25263       68.15282052        1.50686529
       35.35233       67.12398425        1.53874518
       35.45202       66.47959819        1.59950638
       35.55171       64.20709788        1.53230670
       35.65141       62.67865028        1.46189348
       35.75110       62.08588851        1.44222745
       35.85079       61.20869023        1.42540813
       35.95049       61.09557387        1.45989139
       36.05018       57.23389992        1.38987751
       36.14987       59.47647173        1.36170192
       36.24957       59.12769559        1.41734349
       36.34926       58.55191852        1.43771263
       36.44895       57.42730083        1.44958831
       36.54865       55.81967396        1.37422151
       36.64834       56.82466713        1.35691191
       36.74803       55.27530770        1.35699774
       36.84773       54.26621379        1.33681006
       36.94742       56.45774107        1.47703312
       37.04711       52.81543915        1.25775835
       37.14681       53.59436124        1.29498725
       37.24650       54.53304859        1.33947864
       37.34619       57.37478879        1.41047073
       37.44589       53.79604966        1.46109883
       37.54558       52.28174094        1.31321907
       37.64528       53.66903046        1.33168879
       37.74497       52.81665490        1.29914356
       37.84466       53.61320502        1.38616372
       37.94436       52.05342908        1.39306773
       38.04405       52.51849913        1.26570455
       38.14374       54.18810971        1.29689194
       38.24344       51.18044927        1.27956464
       38.34313       52.30996783        1.34990451
       38.44282       53.85049798        1.48217359
       38.54252       49.73089822        1.27620094
       38.64221       57.96197305        1.37694525
       38.74190       57.55732090        1.38563995
       38.84160       62.71218750        1.45038313
       38.94129       65.85815220        1.55978853
       39.04098       75.34558232        1.49975566
       39.14068       82.32824377        1.62852855
       39.24037       83.38120959        1.63815750
       39.34006       82.05344060        1.68688941
       39.43976       77.32739933        1.78358162
       39.53945       66.74467717        1.48342365
       39.63914       59.33438720        1.39354904
       39.73884       53.72735351        1.33099931
       39.83853       51.53027642        1.29397305
       39.93822       52.45613824        1.38357773
       40.03792       50.23156408        1.23564242
       40.13761       48.51883350        1.21786023
       40.23730       49.39575738        1.27396125
       40.33700       49.15475839        1.30962977
       40.43669       49.89908071        1.37946624
       40.53638       51.12174000        1.29772420
       40.63608       49.42468351        1.29958182
       40.73577       52.34513846        1.33022394
       40.83546       51.91035144        1.33647019
       40.93516       49.49683967        1.33014223
       41.03485       50.38457582        1.26587976
       41.13454       49.35890103        1.25490993
       41.23424       50.55379497        1.30052410
       41.33393       47.97746808        1.32373830
       41.43362       47.44788882        1.35858685
       41.53332       50.03464079        1.30308286
       41.63301       47.26776045        1.29061208
       41.73270       47.49205623        1.26524595
       41.83240       47.59206518        1.30497265
       41.93209       47.33539721        1.29291421
       42.03179       47.95723967        1.18771378
       42.13148       48.07319110        1.24946857
       42.23117       46.83727982        1.23377937
       42.33087       48.48282363        1.34312397
       42.43056       46.61875160        1.29024805
       42.53025       45.98778228        1.23991205
       42.62995       46.54243040        1.25524295
       42.72964       45.48297801        1.24674073
       42.82933       46.83594334        1.28678004
       42.92903       47.76561586        1.25286066
       43.02872       45.93436821        1.16430330
       43.12841       44.62162888        1.16939885
       43.22811       44.96857974        1.23291239
       43.32780       46.44061568        1.31875216
       43.42749       46.02378895        1.28736979
       43.52719       45.76660502        1.23683286
       43.62688       44.52783555        1.21590518
       43.72657       45.57904598        1.26019645
       43.82627       46.37064936        1.33002189
       43.92596       45.08814989        1.18568864
       44.02565       43.83157007        1.16016845
       44.12535       41.54878978        1.16999294
       44.22504       41.46212770        1.21697497
       44.32473       43.32221660        1.31257812
       44.42443       46.39733306        1.30464875
       44.52412       42.57845286        1.21308488
       44.62381       41.30910789        1.21324160
       44.72351       43.96174128        1.21054630
       44.82320       40.56141075        1.30057102
       44.92289       41.06706691        1.08905632
       45.02259       42.34528653        1.11529504
       45.12228       40.41420184        1.12769637
       45.22197       41.12755404        1.16558063
       45.32167       40.73820819        1.28393342
       45.42136       41.78756909        1.18499643
       45.52105       39.78793853        1.14552533
       45.62075       41.52739294        1.18494873
       45.72044       41.15717378        1.17601518
       45.82013       41.64724020        1.29178216
       45.91983       40.28599889        1.08370367
       46.01952       41.38361226        1.12718248
       46.11921       42.17905922        1.14013887
       46.21891       40.47288344        1.17290443
       46.31860       40.76651714        1.27224471
       46.41829       40.76178590        1.17502221
       46.51799       39.68800279        1.16135032
       46.61768       39.07721500        1.14642990
       46.71738       41.19686469        1.20964048
       46.81707       41.88584460        1.26620384
       46.91676       40.27912736        1.08649929
       47.01646       40.60331553        1.11997076
       47.11615       39.91692075        1.13334202
       47.21584       40.71504375        1.17969100
       47.31554       37.61744467        1.23140059
       47.41523       40.08269573        1.19107479
       47.51492       40.59303054        1.20384438
       47.61462       38.37236387        1.16525905
       47.71431       39.96946991        1.20329199
       47.81400       40.04333655        1.23777132
       47.91370       39.60267960        1.08158308
       48.01339       38.53166920        1.06434120
       48.11308       39.62667463        1.11583464
       48.21278       38.64307938        1.14659140
       48.31247       37.89747546        1.17107223
       48.41216       38.47785423        1.10394323
       48.51186       36.15475564        1.10660671
       48.61155       38.69620079        1.13934958
       48.71124       37.98824615        1.15176863
       48.81094       37.81996434        1.14222593
       48.91063       37.45859455        1.01570101
       49.01032       41.31586209        1.09886724
       49.11002       38.26986689        1.09747152
       49.20971       38.87522727        1.16496207
       49.30940       38.74084539        1.20137422
       49.40910       37.86814406        1.13025125
       49.50879       39.27021386        1.17338397
       49.60848       41.80573060        1.22269328
       49.70818       38.69825581        1.22195140
       49.80787       39.80634632        1.20230448
       49.90756       37.03249294        1.05162597
       50.00726       39.57096217        1.11229130
       50.10695       41.10810209        1.16146679
       50.20664       39.18635424        1.18861746
       50.30634       40.39242908        1.26347490
       50.40603       39.60761097        1.17264826
       50.50572       39.09031811        1.16535931
       50.60542       39.63672279        1.17474322
       50.70511       38.70598119        1.19243963
       50.80480       39.85089204        1.18688013
       50.90450       40.33045923        1.08207200
       51.00419       38.71522873        1.07418641
       51.10388       40.31775815        1.13288487
       51.20358       38.55920405        1.18033758
       51.30327       38.73290809        1.17583031
       51.40297       38.44537771        1.12121667
       51.50266       39.80695112        1.14786500
       51.60235       38.77956683        1.15464333
       51.70205       37.98900149        1.21604063
       51.80174       38.79525638        1.13329345
       51.90143       40.87736442        1.08799453
       52.00113       37.87566795        1.05021336
       52.10082       39.07428203        1.10325358
       52.20051       38.22941572        1.19820219
       52.30021       37.57260058        1.14086817
       52.39990       37.12583057        1.11195332
       52.49959       33.76865696        1.08049220
       52.59929       37.39493267        1.15840976
       52.69898       38.77103143        1.29551212
       52.79867       38.75912943        1.09381525
       52.89837       38.00657826        1.04355529
       52.99806       37.74958934        1.05612050
       53.09775       37.39656494        1.08172649
       53.19745       38.02732949        1.24745450
       53.29714       37.39737480        1.09302649
       53.39683       34.91357599        1.09989718
       53.49653       37.34863955        1.14735311
       53.59622       36.97789334        1.14174089
       53.69591       38.38230164        1.27879177
       53.79561       36.21349600        1.03895967
       53.89530       37.22459185        1.03892769
       53.99499       37.33241629        1.05852756
       54.09469       39.38598435        1.14051907
       54.19438       38.19349546        1.22356290
       54.29407       34.17902511        1.06913149
       54.39377       35.84638081        1.10365073
       54.49346       38.06645398        1.13968546
       54.59315       38.10050658        1.15811085
       54.69285       36.27268927        1.20416054
       54.79254       35.93158998        1.02638452
       54.89223       35.33892770        1.00867662
       54.99193       36.62231683        1.05882677
       55.09162       36.74144752        1.10798036
       55.19131       34.57279123        1.15775881
       55.29101       36.46772795        1.10674910
       55.39070       36.68130803        1.14388562
       55.49039       35.07672666        1.11139898
       55.59009       35.08037282        1.14567528
       55.68978       33.88014643        1.15283719
       55.78947       34.02031408        1.00791482
       55.88917       34.73315758        1.02058126
       55.98886       38.26139244        1.08174612
       56.08856       36.45495662        1.09164916
       56.18825       42.22000309        1.26995208
       56.28794       45.19574109        1.19987884
       56.38764       50.32897239        1.30734818
       56.48733       56.67452248        1.40420740
       56.58702       58.71886661        1.46895909
       56.68672       59.86766040        1.53167318
       56.78641       64.34622767        1.37174342
       56.88610       60.88500334        1.34777517
       56.98580       53.55585059        1.26462719
       57.08549       47.28617317        1.26079225
       57.18518       43.51960977        1.25316167
       57.28488       39.31089709        1.10673604
       57.38457       35.40020978        1.11209773
       57.48426       35.01285983        1.12958739
       57.58396       35.38710311        1.16768421
       57.68365       33.21837110        1.14628039
       57.78334       31.90692155        0.98264918
       57.88304       32.99622317        1.01097461
       57.98273       33.46781640        1.03310415
       58.08242       30.88354026        1.06874048
       58.18212       33.23169824        1.13096247
       58.28181       32.26572079        1.04550554
       58.38150       34.24767542        1.13490065
       58.48120       31.22388851        1.11061378
       58.58089       31.77005646        1.13534231
       58.68058       35.18539180        1.16913766
       58.78028       31.70335628        0.96787860
       58.87997       32.98314090        0.96871063
       58.97966       30.95112050        0.97044829
       59.07936       31.43587234        1.04201290
       59.17905       32.18889179        1.06965089
       59.27874       32.24000128        1.01917642
       59.37844       31.93015575        1.04849280
       59.47813       30.01752406        1.05880152
       59.57782       30.90109751        1.12135915
       59.67752       29.87272573        1.02545624
       59.77721       30.99561311        0.95919964
       59.87690       29.58872004        0.92939758
       59.97660       30.60850099        0.99136733
       60.07629       30.02386320        1.06560301
       60.17598       30.26571774        1.02584175
       60.27568       30.37014210        0.99762052
       60.37537       30.00128581        1.00925940
       60.47506       30.99460930        1.06613863
       60.57476       30.73043246        1.16524373
       60.67445       29.85111717        0.98270784
       60.77415       29.71467505        0.93095122
       60.87384       29.94263199        0.92236484
       60.97353       30.92051314        0.99008379
       61.07323       30.99034505        1.11728759
       61.17292       31.11380922        0.96761564
       61.27261       29.46627419        0.97279507
       61.37231       30.45270087        1.02302207
       61.47200       29.31501092        1.04444102
       61.57169       28.62419208        1.17347238
       61.67139       28.35531274        0.95386448
       61.77108       28.44509708        0.93613569
       61.87077       29.57220000        0.94774941
       61.97047       29.47289593        0.98066569
       62.07016       28.12076573        1.08437619
       62.16985       29.17220146        0.96748939
       62.26955       29.02577964        1.00169140
       62.36924       28.05726576        1.01783959
       62.46893       27.38899241        1.04402034
       62.56863       28.65730563        1.20142385
       62.66832       31.04544070        1.01529897
       62.76801       30.08975149        0.97382993
       62.86771       28.34380583        0.92291323
       62.96740       29.14333046        0.96134555
       63.06709       28.04452461        1.05074031
       63.16679       27.31367360        0.91472598
       63.26648       28.00537518        0.95681593
       63.36617       27.97209524        0.99779040
       63.46587       28.36589899        1.04042656
       63.56556       30.68276553        1.15281814
       63.66525       28.82198290        0.94496334
       63.76495       29.02611679        0.92057366
       63.86464       29.59754958        0.92386990
       63.96433       28.70928986        0.95109410
       64.06403       28.71342748        1.01528642
       64.16372       28.04159076        0.93267858
       64.26341       28.16010889        0.98013188
       64.36311       30.14810634        1.03503238
       64.46280       30.73075899        1.10333024
       64.56249       30.49069707        1.11593079
       64.66219       29.06758610        0.95179782
       64.76188       28.66564100        0.93111345
       64.86157       30.31215664        0.95250768
       64.96127       28.80143998        0.97683764
       65.06096       28.80624076        1.06087662
       65.16065       30.10535527        0.98373202
       65.26035       29.01539159        0.98530597
       65.36004       29.68202477        1.03696446
       65.45974       31.06970113        1.09478684
       65.55943       30.90846749        1.14072249
       65.65912       31.62041218        0.99905972
       65.75882       33.16105557        1.01360033
       65.85851       31.97760668        0.99619942
       65.95820       33.40578401        1.07268920
       66.05790       34.42092529        1.12575015
       66.15759       36.58704674        1.10249032
       66.25728       36.98739123        1.14067317
       66.35698       38.18282270        1.20357887
       66.45667       44.15120999        1.37280150
       66.55636       47.94168179        1.42420963
       66.65606       57.47314623        1.38551855
       66.75575       74.06755274        1.54791500
       66.85544      105.21917791        1.83264576
       66.95514      154.22102988        2.30928095
       67.05483      229.63803766        2.83969412
       67.15452      345.64348487        3.32240634
       67.25422      491.10648064        4.16398059
       67.35391      615.63694151        4.89522272
       67.45360      715.62286337        5.61215857
       67.55330      771.88211577        5.63813122
       67.65299      850.26578984        5.35649395
       67.75268      872.81431699        5.36410465
       67.85238      835.20020356        5.29225338
       67.95207      736.16244591        5.28591512
       68.05176      624.02421113        4.58384631
       68.15146      445.02057357        3.79500414
       68.25115      292.42403516        3.24822064
       68.35084      199.52036221        2.80855628
       68.45054      147.12527124        2.66503138
       68.55023      107.16686568        1.95691120
       68.64992       73.83713825        1.50537317
       68.74962       55.21217914        1.31235996
       68.84931       43.96927861        1.18659072
       68.94900       39.93944053        1.27815922
       69.04870       38.23323845        1.05174548
       69.14839       36.02152693        1.05848370
       69.24808       33.26418672        1.09682106
       69.34778       32.26328027        1.11365480
       69.44747       34.25969042        1.32585412
       69.54716       34.02355078        1.02970707
       69.64686       31.22085697        0.97064056
       69.74655       29.92186989        0.95515081
       69.84625       28.90591224        0.96085224
       69.94594       28.56347187        1.07802794
       70.04563       30.16410124        0.91952046
       70.14533       28.69559074        0.93596583
       70.24502       27.83978007        0.98452784
       70.34471       29.00823449        1.06230532
       70.44441       30.41871977        1.27770746
       70.54410       29.96492208        0.99149051
       70.64379       32.98319845        1.03380356
       70.74349       33.47395270        1.05683171
       70.84318       34.12860569        1.11752943
       70.94287       33.89648587        1.22941174
       71.04257       35.88210889        1.04408716
       71.14226       34.71766169        1.06383094
       71.24195       38.29613427        1.17356057
       71.34165       35.37419204        1.19057306
       71.44134       37.06563314        1.35669003
       71.54103       34.90481306        1.07128521
       71.64073       30.75575791        0.98634140
       71.74042       29.76001863        0.95969644
       71.84011       28.87114099        0.98023193
       71.93981       28.09416987        1.05163050
       72.03950       24.74306022        0.83206063
       72.13919       25.27876325        0.87628132
       72.23889       25.96635925        0.92292854
       72.33858       24.53059366        0.99951039
       72.43827       23.97033305        1.08608531
       72.53797       26.34530523        0.92761204
       72.63766       24.01417560        0.86899440
       72.73735       24.89569274        0.86273380
       72.83705       26.38939148        0.93565709
       72.93674       27.28086123        1.00946613
       73.03643       24.79575020        0.83197077
       73.13613       23.63857611        0.85294100
       73.23582       25.88080888        0.94095122
       73.33551       24.17557229        1.00753332
       73.43521       23.27877288        1.07367310
       73.53490       25.19943454        0.90067195
       73.63459       24.78267037        0.87840297
       73.73429       24.84372775        0.87267086
       73.83398       27.18208377        0.96643707
       73.93367       25.01416747        0.97445456
       74.03337       25.51863381        0.86714016
       74.13306       26.19340929        0.92541897
       74.23275       26.73158965        0.97746398
       74.33245       24.68578776        1.03236166
       74.43214       25.91609640        1.09270362
       74.53184       25.29942842        0.91632554
       74.63153       25.02767575        0.90434150
       74.73122       26.87499504        0.93024610
       74.83092       25.97975631        0.96690267
       74.93061       25.05136673        0.96136901
       75.03030       24.11285042        0.85057654
       75.13000       25.16372389        0.89866295
       75.22969       24.23179929        0.91903226
       75.32938       22.84750767        0.97751440
       75.42908       24.63753972        1.02808715
       75.52877       23.09733816        0.86328170
       75.62846       23.25720860        0.86046724
       75.72816       24.93177357        0.89137783
       75.82785       23.34089423        0.93432028
       75.92754       24.66080152        0.90814216
       76.02724       22.95748266        0.81739252
       76.12693       21.84718912        0.82941006
       76.22662       23.84302603        0.91429778
       76.32632       22.61884560        1.00549039
       76.42601       23.90512975        0.96737530
       76.52570       24.36831052        0.89818506
       76.62540       23.03985073        0.87242649
       76.72509       22.76226023        0.85978775
       76.82478       24.08264035        1.02057027
       76.92448       22.48268844        0.78359199
       77.02417       22.96917721        0.81916477
       77.12386       23.20840574        0.86325924
       77.22356       23.13294670        0.91421111
       77.32325       21.98927113        1.08985271
       77.42294       22.99240908        0.89212348
       77.52264       23.24601336        0.88033627
       77.62233       22.18782507        0.85574876
       77.72202       21.72305277        0.84476643
       77.82172       23.75376997        1.03209788
       77.92141       22.04943124        0.76226056
       78.02110       23.41470622        0.84566566
       78.12080       23.39428741        0.89659432
       78.22049       23.03294771        0.94615365
       78.32018       23.70792854        1.11803245
       78.41988       22.01319926        0.85150393
       78.51957       23.41213954        0.90477811
       78.61926       23.03737036        0.89138609
       78.71896       20.44336977        0.84116874
       78.81865       20.70429313        0.94322457
       78.91834       23.16207792        0.76932417
       79.01804       22.70536858        0.83862947
       79.11773       22.42442237        0.87327631
       79.21743       21.98472918        0.92427986
       79.31712       24.27338976        1.09367301
       79.41681       22.47450277        0.84855112
       79.51651       22.84006941        0.87060262
       79.61620       20.57866689        0.82701240
       79.71589       22.01329531        0.88606339
       79.81559       23.64714084        0.97047683
       79.91528       22.24893666        0.79983706
       80.01497       22.37994511        0.83579470
       80.11467       22.48906548        0.87270130
       80.21436       22.77132411        0.93704383
       80.31405       22.21706534        1.09882592
       80.41375       23.22105684        0.85962666
       80.51344       21.94831949        0.83173503
       80.61313       21.61259468        0.84754017
       80.71283       20.30498239        0.85371161
       80.81252       24.21190842        1.05064460
       80.91221       23.10465574        0.76575537
       81.01191       22.13169885        0.80328871
       81.11160       22.91909455        0.88060724
       81.21129       23.86532317        0.97046060
       81.31099       21.93283892        1.03608307
       81.41068       21.15003372        0.79229586
       81.51037       22.12437104        0.83127527
       81.61007       24.17345756        0.91789558
       81.70976       22.95385057        0.92702266
       81.80945       22.83033579        0.98328128
       81.90915       22.06271575        0.73632279
       82.00884       21.83661857        0.78400927
       82.10853       23.78545807        0.91176140
       82.20823       21.99903046        0.96990242
       82.30792       21.14311619        0.99417831
       82.40761       21.05186309        0.81072224
       82.50731       22.96337956        0.85671580
       82.60700       21.85544938        0.89503184
       82.70669       22.72882187        0.99396537
       82.80639       23.73641242        0.96809024
       82.90608       21.16655641        0.74077229
       83.00577       21.30361997        0.78609424
       83.10547       21.50820228        0.92755314
       83.20516       23.36888030        1.08331054
       83.30485       22.06419723        1.00577804
       83.40455       23.40280211        0.86444157
       83.50424       23.27086187        0.83670557
       83.60393       22.95911702        0.91504019
       83.70363       22.36016837        1.01498260
       83.80332       26.19916821        0.96152782
       83.90302       25.94007153        0.79971437
       84.00271       24.29564216        0.80549081
       84.10240       26.17749353        1.01222394
       84.20210       27.30892158        1.25589865
       84.30179       27.48161009        1.02465543
       84.40148       27.17331725        0.89490147
       84.50118       26.45053279        0.86706678
       84.60087       27.28053997        0.99246687
       84.70056       25.96450167        1.25924273
       84.80026       24.34727113        0.85189771
       84.89995       26.05106023        0.79547901
       84.99964       25.30609707        0.81608284
       85.09934       22.12964713        0.89919977
       85.19903       23.51054412        1.58714144
       85.29872       22.57719115        0.81825733
       85.39842       21.89705964        0.81901817
       85.49811       20.92075546        0.77772659
       85.59780       21.68992941        0.88710436
       85.69750       21.65494324        1.59439421
       85.79719       22.63506069        0.77853582
       85.89688       22.13786981        0.75195503
       85.99658       22.84871654        0.78203256
       86.09627       20.80452524        0.85511822
       86.19596       17.38074348        1.50805600
       86.29566       21.67836411        0.79288833
       86.39535       22.63478822        0.81879636
       86.49504       21.55664384        0.78639130
       86.59474       22.92044723        0.87665432
       86.69443       22.17715158        1.80661744
       86.79412       21.48807406        0.74016962
       86.89382       23.20936709        0.74929983
       86.99351       21.37450599        0.74655043
       87.09320       20.49336786        0.81061831
       87.19290       19.50230483        1.87593926
       87.29259       21.86755654        0.79981575
       87.39228       21.74076185        0.81683039
       87.49198       21.10200566        0.78845224
       87.59167       23.00220097        0.83320717
       87.69136       18.57476789        2.23926925
       87.79106       20.97972338        0.73807918
       87.89075       20.71666867        0.72752656
       87.99044       20.44606825        0.74810479
       88.09014       20.87652676        0.80285921
       88.18983       26.95309526        4.85616470
       88.28952       22.37201479        0.84666841
       88.38922       21.45159347        0.83705307
       88.48891       21.44664088        0.79922801
       88.58861       21.70745382        0.77617521
       88.68830       19.92452748        5.82631120
       88.78799       22.22393902        0.75774294
       88.88769       21.81886063        0.72962378
       88.98738       20.70763677        0.74193817
       89.08707       20.52578327        0.76450389
       89.18677       19.26655539        6.03519497
       89.28646       21.42698429        0.79142271
       89.38615       22.18187359        0.80816255
       89.48585       20.13869573        0.75542071
       89.58554       22.04772259        0.77121408
       89.68523       18.81878601        5.75791794
       89.78493       21.57133312        0.73675738
       89.88462       19.83255529        0.70024979
       89.98431       21.41193088        0.75097858
       90.08401       21.03473735        0.76564652
       90.18370       22.97525286        6.62412590
       90.28339       21.21280324        0.78425602
       90.38309       20.45041851        0.78192835
       90.48278       20.48729462        0.76510608
       90.58247       22.40621754        0.78729783
       90.68217       21.77113446        6.12667395
       90.78186       21.79307649        0.75311155
       90.88155       22.26807138        0.74230730
       90.98125       21.34745553        0.74700641
       91.08094       23.84260732        0.81479195
       91.18063       17.01312393        5.48569396
       91.28033       21.59171210        0.79667803
       91.38002       22.44337099        0.82970544
       91.47971       23.78991640        0.83362699
       91.57941       23.08134423        0.80580611
       91.67910       29.33692170        6.88379827
       91.77879       24.70820231        0.79857486
       91.87849       25.76931274        0.79868230
       91.97818       26.99366709        0.84880655
       92.07787       27.76611200        0.89299412
       92.17757       18.85491561        5.58619133
       92.27726       29.21866334        0.94344123
       92.37695       32.46659874        1.02676876
       92.47665       37.31827827        1.05778442
       92.57634       42.17812552        1.08212676
       92.67603       38.03681462        6.71336834
       92.77573       53.51490425        1.17435253
       92.87542       68.58395355        1.30199957
       92.97511       93.98263614        1.58745900
       93.07481      135.55672726        2.17615369
       93.17450      151.71204661        4.34465838
       93.27420      182.93542799        2.36069443
       93.37389      229.54226141        2.57640984
       93.47358      269.79040939        2.81198825
       93.57328      303.37006474        3.45516647
       93.67297      312.26530384        4.72802991
       93.77266      328.73198835        3.00653029
       93.87236      340.18266192        2.90384911
       93.97205      367.00977632        3.17872043
       94.07174      383.29639064        4.25266347
       94.17144      379.93136231        4.83713971
       94.27113      380.34952096        3.57978635
       94.37082      365.93911262        3.40079685
       94.47052      348.39322488        3.18487154
       94.57021      316.98409918        4.00287072
       94.66990      298.80517782        3.91902489
       94.76960      258.53578506        2.81679980
       94.86929      196.53957494        2.25172306
       94.96898      137.94089570        1.91074925
       95.06868       98.12335139        1.84658335
       95.16837       85.15384753        2.34713957
       95.26806       73.12264041        1.67913670
       95.36776       62.08363584        1.40140002
       95.46745       50.87729798        1.21778189
       95.56714       41.29116149        1.25753958
       95.66684       39.81086124        1.39707558
       95.76653       35.34195955        1.09379079
       95.86622       28.58083292        0.83717800
       95.96592       26.90876238        0.83749172
       96.06561       30.07066127        1.13437720
       96.16530       27.76469230        1.15692855
       96.26500       24.79895953        0.98256243
       96.36469       30.17885500        0.96688965
       96.46438       30.79834510        0.95029238
       96.56408       33.83700178        1.24409968
       96.66377       32.44088162        1.18317212
       96.76346       36.30754651        1.11528902
       96.86316       34.75492303        0.94149014
       96.96285       35.62762514        0.98340071
       97.06254       35.48674046        1.32268325
       97.16224       36.84541948        1.28984362
       97.26193       33.67199038        1.15301327
       97.36162       36.47218824        1.12310746
       97.46132       37.80327727        1.06223298
       97.56101       37.16599550        1.33006318
       97.66071       36.48383018        1.17914082
       97.76040       34.36882154        1.04021627
       97.86009       32.21535503        0.90765034
       97.95979       32.22692156        0.92262113
       98.05948       27.60889522        1.19407268
       98.15917       28.16013135        1.07698187
       98.25887       27.50192282        1.02267324
       98.35856       26.29888705        0.93998797
       98.45825       22.14437191        0.80181480
       98.55795       21.85690935        1.03935021
       98.65764       21.33141619        0.87983082
       98.75733       21.48354906        0.82097924
       98.85703       22.23063186        0.77850400
       98.95672       21.72777827        0.77247587
       99.05641       23.56177871        1.12179563
       99.15611       21.44551048        0.91794378
       99.25580       21.65066546        0.88954602
       99.35549       22.48597493        0.86140656
       99.45519       20.99482555        0.77492308
       99.55488       20.51866193        1.02253485
       99.65457       21.83683573        0.86885994
       99.75427       21.67899969        0.81067798
       99.85396       22.05500943        0.78778872
       99.95365       21.46346393        0.76172389
      100.05335       21.81422732        1.08846832
      100.15304       21.49517470        0.90743351
      100.25273       20.36098911        0.87283191
      100.35243       21.90553542        0.89870360
      100.45212       22.09015945        0.82317967
      100.55181       22.90048889        1.10325609
      100.65151       21.57979916        0.87576545
      100.75120       21.21302461        0.80838612
      100.85089       21.66504447        0.77903580
      100.95059       21.82550525        0.75954449
      101.05028       21.70800227        1.08060099
      101.14997       21.50732751        0.88620990
      101.24967       21.26384693        0.86826518
      101.34936       20.38034889        0.85369047
      101.44905       21.62562588        0.83408110
      101.54875       21.17450796        1.03712690
      101.64844       20.43725092        0.82898264
      101.74813       20.86900147        0.78562765
      101.84783       21.61400027        0.77496524
      101.94752       20.41845734        0.79345288
      102.04721       22.65520979        1.00445860
      102.14691       18.56862196        0.81846833
      102.24660       20.51540003        0.85329278
      102.34630       19.38812477        0.83575455
      102.44599       20.45796902        0.87103658
      102.54568       22.47290512        0.95569850
      102.64538       19.77828524        0.79928975
      102.74507       20.54443841        0.77374201
      102.84476       20.56487670        0.75830064
      102.94446       22.46214841        0.89890046
      103.04415       21.00292423        0.92837787
      103.14384       19.63532204        0.84113533
      103.24354       21.65784055        0.87122284
      103.34323       21.30633299        0.85553879
      103.44292       19.93221702        0.89534048
      103.54262       19.63378111        0.86250504
      103.64231       18.49971731        0.76007860
      103.74200       21.31078064        0.77683039
      103.84170       20.13610413        0.74034015
      103.94139       20.88552964        0.91576440
      104.04108       20.16894066        0.87153070
      104.14078       20.75664981        0.85641416
      104.24047       18.96997919        0.81655170
      104.34016       21.17080324        0.86638377
      104.43986       19.76484456        0.95329522
      104.53955       18.91688917        0.84079795
      104.63924       20.17840835        0.81434133
      104.73894       19.94745165        0.77813985
      104.83863       19.96500735        0.75565809
      104.93832       19.75729158        0.91026666
      105.03802       19.00324557        0.83790715
      105.13771       20.59522724        0.83931967
      105.23740       21.92393548        0.86269735
      105.33710       20.12726363        0.82837040
      105.43679       19.53888524        0.95013874
      105.53648       20.13635878        0.86776922
      105.63618       19.53690931        0.78619332
      105.73587       21.13363272        0.78227934
      105.83556       19.14638223        0.72390480
      105.93526       21.52598076        0.97096467
      106.03495       20.45636850        0.85714682
      106.13464       19.62435724        0.81024300
      106.23434       19.58220500        0.81409922
      106.33403       19.63471112        0.82400243
      106.43372       20.50834071        1.00727103
      106.53342       19.40907175        0.85362201
      106.63311       20.90402333        0.80553944
      106.73280       19.95029481        0.74736410
      106.83250       20.52405367        0.74496919
      106.93219       21.02698206        0.97583128
      107.03189       20.86752391        0.86145261
      107.13158       18.62282200        0.78814579
      107.23127       19.98459109        0.83167596
      107.33097       21.94408104        0.87196485
      107.43066       22.87689902        1.07266137
      107.53035       20.38316282        0.87017286
      107.63005       19.11818756        0.76679482
      107.72974       20.99377824        0.76991914
      107.82943       19.41024050        0.72983546
      107.92913       20.65136680        0.99513879
      108.02882       21.51756092        0.89054429
      108.12851       21.25065811        0.84597186
      108.22821       20.23570305        0.81382260
      108.32790       20.93901049        0.81720764
      108.42759       21.25323082        1.04395479
      108.52729       20.08908883        0.86055903
      108.62698       20.90806412        0.79367759
      108.72667       21.46653813        0.77084418
      108.82637       21.25431547        0.78583926
      108.92606       22.92522449        1.03898907
      109.02575       22.76802077        0.90584015
      109.12545       21.36237016        0.85445068
      109.22514       21.04703569        0.84588512
      109.32483       22.51179602        0.95139378
      109.42453       24.61358261        1.04881867
      109.52422       25.57529334        0.96449072
      109.62391       24.53920323        0.89751848
      109.72361       27.46396955        0.90927073
      109.82330       26.87459086        0.84623463
      109.92299       26.71110553        1.09715645
      110.02269       29.65576050        1.00811830
      110.12238       28.76410059        0.98552845
      110.22207       29.97391880        0.99741574
      110.32177       27.84627858        0.97993737
      110.42146       29.33148138        1.21893276
      110.52115       29.21375453        1.03500651
      110.62085       28.67963714        0.97047708
      110.72054       28.98165225        0.91598641
      110.82023       28.84218065        0.94048299
      110.91993       29.76242228        1.10998115
      111.01962       30.45575875        1.03745028
      111.11931       28.91069689        1.01546325
      111.21901       27.91324232        0.97780346
      111.31870       29.40680096        1.08703395
      111.41839       27.65490350        1.09738805
      111.51809       25.90486246        0.96889824
      111.61778       27.96535044        0.94794633
      111.71748       24.47130585        0.82177673
      111.81717       24.18227478        0.88418150
      111.91686       22.51992290        0.89677014
      112.01656       20.86461176        0.84273436
      112.11625       20.72956988        0.84520183
      112.21594       20.75112660        0.84391984
      112.31564       21.15461796        0.94448759
      112.41533       21.66469318        0.93852175
      112.51502       20.64871000        0.84227110
      112.61472       20.30577312        0.79585681
      112.71441       20.60470336        0.75495955
      112.81410       18.92592153        0.80878935
      112.91380       19.28799191        0.83076954
      113.01349       19.86181331        0.82698959
      113.11318       19.90960744        0.82859903
      113.21288       21.03092025        0.85027734
      113.31257       18.31955039        0.87684025
      113.41226       19.19719211        0.85129662
      113.51196       21.30435432        0.84323569
      113.61165       20.18787004        0.79216285
      113.71134       19.86568503        0.74837034
      113.81104       19.18702840        0.84270575
      113.91073       21.20798460        0.86380143
      114.01042       20.24756770        0.83687055
      114.11012       20.70428993        0.84486042
      114.20981       20.66146621        0.84758633
      114.30950       19.48903634        0.93273933
      114.40920       19.51698084        0.86164892
      114.50889       20.62281520        0.82915375
      114.60858       20.22059261        0.79621090
      114.70828       19.09110982        0.74747856
      114.80797       21.65311320        0.90738952
      114.90766       19.75870409        0.81575766
      115.00736       19.20687482        0.79884814
      115.10705       20.82227294        0.83445679
      115.20674       19.56256961        0.82141123
      115.30644       20.24485543        0.95721458
      115.40613       20.25229871        0.86828881
      115.50582       21.04297338        0.83741387
      115.60552       20.51706336        0.80060169
      115.70521       20.66946661        0.77355731
      115.80490       19.92911925        0.88380922
      115.90460       20.63424736        0.81352885
      116.00429       20.08983338        0.81215522
      116.10398       20.26557900        0.82093970
      116.20368       21.17318975        0.85776292
      116.30337       20.46540044        1.00733223
      116.40307       20.00807162        0.87069532
      116.50276       20.08453032        0.82636141
      116.60245       20.31594805        0.79899419
      116.70215       19.81337383        0.76027774
      116.80184       22.60673823        0.96349911
      116.90153       21.08436844        0.83751675
      117.00123       21.76766696        0.84344758
      117.10092       21.52611529        0.86077434
      117.20061       21.17508910        0.86670993
      117.30031       20.62109956        1.02835912
      117.40000       21.49114947        0.87945772
      117.49969       20.46769812        0.81462799
      117.59939       21.15887867        0.79035981
      117.69908       21.51694232        0.77156702
      117.79877       22.64850783        0.97073788
      117.89847       21.74528595        0.82587534
      117.99816       21.85744621        0.84006295
      118.09785       23.16291864        0.88581598
      118.19755       23.45087842        0.93110993
      118.29724       22.99280278        1.00483498
      118.39693       26.06250868        0.97596006
      118.49663       27.50716294        0.94304424
      118.59632       29.47630909        0.93952544
      118.69601       31.32158982        1.01217431
      118.79571       34.03526398        1.14149015
      118.89540       37.16788241        1.11511670
      118.99509       41.57344251        1.17965559
      119.09479       44.57979424        1.23102106
      119.19448       44.82848584        1.34426895
      119.29417       52.47546573        1.51261678
      119.39387       56.49286194        1.44457275
      119.49356       66.70690611        1.47672943
      119.59325       81.57597680        1.58957721
      119.69295       96.75331878        1.83198855
      119.79264      110.56142715        1.98411357
      119.89233      128.96154683        2.07747163
      119.99203      150.03205394        2.18904261
      120.09172      166.97916921        2.35707557
      120.19141      178.54272354        2.73524020
      120.29111      195.00985090        2.82553329
      120.39080      205.53641957        2.77184327
      120.49049      222.38069051        2.69089762
      120.59019      230.95985757        2.66504425
      120.68988      239.59382695        2.92575797
      120.78957      244.04662113        2.88350491
      120.88927      256.36876585        2.90735436
      120.98896      257.58216729        2.88359342
      121.08866      257.46016893        2.89497747
      121.18835      266.09240298        3.38231030
      121.28804      270.98237290        3.32730184
      121.38774      271.82563837        3.16083810
      121.48743      274.15154695        3.00543950
      121.58712      278.41181047        2.88772817
      121.68682      273.22240037        3.15009146
      121.78651      278.80841270        3.03709540
      121.88620      273.90799913        2.97253387
      121.98590      266.09131290        2.94724337
      122.08559      252.50985163        2.92573141
      122.18528      250.46547963        3.40210607
      122.28498      239.94554478        3.12597926
      122.38467      219.40999352        2.85759922
      122.48436      198.62472673        2.56903888
      122.58406      175.35722807        2.28224720
      122.68375      156.71608239        2.44178756
      122.78344      134.91802324        2.12572462
      122.88314      112.87615838        1.92937238
      122.98283       93.59350149        1.79380039
      123.08252       82.70209379        1.67982696
      123.18222       74.39836182        1.85495637
      123.28191       65.57925853        1.57768999
      123.38160       59.48248661        1.45038191
      123.48130       51.78914516        1.30236350
      123.58099       47.00949527        1.15879226
      123.68068       44.70629117        1.28904123
      123.78038       38.17735969        1.07534261
      123.88007       37.38172099        1.04473191
      123.97976       32.51101969        0.98992703
      124.07946       30.94313010        0.95466267
      124.17915       25.47933673        0.97524379
      124.27884       26.69414041        0.89376281
      124.37854       23.72088224        0.79240900
      124.47823       23.06778115        0.76477816
      124.57792       22.29812880        0.80120535
